;FormatISD2
[Curve Information]
Name=Spectrum
Data=Spectrum
Class=TLWNumNode

[Comment]


[Measurement Conditions]
IntegrationTime [ms]=20
Averages=1
Filter=none
SerialNumber=193112121;216415021
CCDTemperature=24.56 °C
DCCCDTemperature=24.43 °C
Last Dark Current [min]=0.6
Signal Level (Counts) [Counts]=5725
Signal Level (%) [%]=8
Spectrometer=CAS120 R2
InterfaceType=CAS 120/140CT/140D - USB
Configuration=C:\ProgramData\Instrument Systems\Calib Data\1931121T1.ini, 09.06.2021 16:20:44
Calibration=C:\ProgramData\Instrument Systems\Calib Data\1931121T1.isc, 09.06.2021 16:20:44
CalibDate=2021-06-09T15:20:43.994+02:00
TOP/Aperture [mm]=0.8
TOP/Distance [mm]=0
TOP/Spotsize [mm]=-1.6
TOP/Field of View [°]=0
BoxCar=2
Measurement Setup=CAS 140B/CT(S)/D, CAS 120, MAS 40 - 1931121T1 - TOP150
AnalysisRange=359.7 - 833.5 nm
Measurement Mode=SpectralAnalysis
IlluminantReference=Illuminant E (0.3333;0.3333)
Observer [°]=2
CRIMode=CRI 13.3 - 95
SDCMMode=ANSI C78.377

[Results]
Radiometric [W/(cm² sr)]=0.000124338720502057
Photometric [cd/m²]=236.963299215187
Scotopic [cd/m²]=815.496037128276
RadiometricUnit=W/(cm² sr)
PhotometricUnit=cd/m²
ScotopicUnit=cd/m²
RadiometricName=Radiance
PhotometricName=Luminance
ScotopicName=Luminance
UVA [W/(cm² sr)]=3.81252673636007E-007
UVB [W/(cm² sr)]=0
UVC [W/(cm² sr)]=0
VIS [W/(cm² sr)]=0.000122866898807184
Tristimulus_X [cd/m²]=237.169764980309
Tristimulus_Y [cd/m²]=236.963299215187
Tristimulus_Z [cd/m²]=534.915117945696
FootLambert [fL]=69.1609417779528
ColorCoordinates/x=0.235043052629099
ColorCoordinates/y=0.234838438252129
ColorCoordinates/z=0.530118509118772
ColorCoordinates/u=0.175799659400829
ColorCoordinates/v1960=0.263469928150319
ColorCoordinates/v1976=0.395204892225478
PeakWavelength [nm]=425.944747254729
CentroidWavelength [nm]=511.793489107093
DominantWavelength [nm]=476.948681027915
Purity=0.426529298802934
Width50 [nm]=56.1859475928949
CCT [K]=0
CCT_JIS [K]=
PlanckDistance=0
RedEffect [%]=10.0611919976115
VisEffect [%]=28.2373681293278
CRI=0
CRI/CRI01=0
CRI/CRI02=0
CRI/CRI03=0
CRI/CRI04=0
CRI/CRI05=0
CRI/CRI06=0
CRI/CRI07=0
CRI/CRI08=0
CRI/CRI09=0
CRI/CRI10=0
CRI/CRI11=0
CRI/CRI12=0
CRI/CRI13=0
CRI/CRI14=0
CRI/CRI15=0
CRI/CRI16=0
CDI=0
CRITemp [K]=N/A
TLCI-2012/Qa=89.3767536060772
TLCI-2012/Qa/Q1=96.7481635854916
TLCI-2012/Qa/Q2=97.3315102926212
TLCI-2012/Qa/Q3=98.1424187770761
TLCI-2012/Qa/Q4=98.8403044101452
TLCI-2012/Qa/Q5=95.255645411136
TLCI-2012/Qa/Q6=95.0723733539405
TLCI-2012/Qa/Q7=97.2849651284191
TLCI-2012/Qa/Q8=99.497768070982
TLCI-2012/Qa/Q9=95.2769683716734
TLCI-2012/Qa/Q10=81.6175245802762
TLCI-2012/Qa/Q11=99.0565366469365
TLCI-2012/Qa/Q12=92.5390752460033
TLCI-2012/Qa/Q13=99.4133749264014
TLCI-2012/Qa/Q14=97.823607910174
TLCI-2012/Qa/Q15=71.4476212572712
TLCI-2012/Qa/Q16=97.6404192283247
TLCI-2012/Qa/Q17=75.8201896960724
TLCI-2012/Qa/Q18=91.9125939631499
TLCI-2012/Qa/Q19=99.2898583073621
TLCI-2012/Qa/Q20=99.483895643109
TLCI-2012/Qa/Q21=99.6217911669569
TLCI-2012/Qa/Q22=99.791699477782
TLCI-2012/Qa/Q23=99.8912644935838
TLCI-2012/Qa/Q24=99.9500389110105
TLCI-2012/dE*a=1.30102017741233
TLCI-2012/dE*a/dE*1=0.768639854531027
TLCI-2012/dE*a/dE*2=0.706087914816376
TLCI-2012/dE*a/dE*3=0.605073810377413
TLCI-2012/dE*a/dE*4=0.495763505494668
TLCI-2012/dE*a/dE*5=0.905502713547219
TLCI-2012/dE*a/dE*6=0.920654875433375
TLCI-2012/dE*a/dE*7=0.711335447479017
TLCI-2012/dE*a/dE*8=0.348852353933795
TLCI-2012/dE*a/dE*9=0.903720500788951
TLCI-2012/dE*a/dE*10=1.69803116021955
TLCI-2012/dE*a/dE*11=0.454504170497957
TLCI-2012/dE*a/dE*12=1.10674748293516
TLCI-2012/dE*a/dE*13=0.372307685137
TLCI-2012/dE*a/dE*14=0.647231072149992
TLCI-2012/dE*a/dE*15=2.15630306383387
TLCI-2012/dE*a/dE*16=0.669919451601885
TLCI-2012/dE*a/dE*17=1.96282731063538
TLCI-2012/dE*a/dE*18=1.14780472884268
TLCI-2012/dE*a/dE*19=0.403370189639485
TLCI-2012/dE*a/dE*20=0.352855906725808
TLCI-2012/dE*a/dE*21=0.309809192626502
TLCI-2012/dE*a/dE*22=0.241463814782229
TLCI-2012/dE*a/dE*23=0.184093602058325
TLCI-2012/dE*a/dE*24=0.133109014937937
TLCI-2012/CCT=0000
TLCI-2012/dCCT [K]=472.47847396719
TLCI-2012/Reference=M4207

[General Information]
Date=21.04.2023
Time=14:20:21
ISODateTime=2023-04-21T14:20:21.410+03:00
User=perolab
Version=3.7.4.3110
Application=SpecWin Light

[Data]
Name=Spectrum
Type=Double
NumberOfDataX=1668
NumberOfDataY=2
X-MIN=359.712097167969
X-MAX=833.4931640625
X-Unit=nm
Y-Unit=W/cm² sr nm
Data
359.712097167969	7.10402972003976E-008
360.012359619141	7.13341634650533E-008
360.312622070313	2.04060750519375E-008
360.612915039063	-1.99101044658578E-015
360.913177490234	-1.78404366835139E-008
361.213439941406	4.98811871807447E-008
361.513732910156	3.29382920938315E-008
361.813995361328	1.16035456798613E-008
362.1142578125	4.69615457632244E-008
362.41455078125	6.27195220204158E-008
362.714813232422	2.09885486768258E-009
363.015075683594	-1.91345428390832E-009
363.315368652344	1.65312972200127E-008
363.615631103516	4.09353120289779E-008
363.915924072266	1.8411514091099E-008
364.216186523438	1.11379163669767E-008
364.516448974609	9.82693038054094E-009
364.816741943359	-5.89001825090918E-009
365.117004394531	-3.22851789746892E-008
365.417266845703	-7.81226461299411E-009
365.717559814453	3.59921337178548E-008
366.017822265625	5.59432535851556E-008
366.318084716797	6.64078001477719E-008
366.618377685547	6.40357100678557E-008
366.918640136719	5.30686854460782E-008
367.218902587891	5.25394172612437E-009
367.519195556641	-2.02396055470899E-008
367.819458007812	-4.05929618807477E-008
368.119720458984	-2.75405209748669E-008
368.420013427734	-2.37043735751286E-008
368.720275878906	-5.99428107150857E-009
369.020538330078	4.45909797974764E-009
369.320831298828	9.81098491337207E-009
369.62109375	1.09189146613176E-008
369.921356201172	1.62868669661975E-008
370.221649169922	4.67178118412903E-009
370.521911621094	9.95257742886224E-009
370.822174072266	1.04697921443631E-008
371.122467041016	1.22695285043051E-008
371.422729492188	-2.10422324009585E-009
371.722991943359	6.45904574270162E-009
372.023284912109	-5.0206243606965E-009
372.323547363281	-4.12240774849693E-009
372.623809814453	-8.32323188149076E-009
372.924102783203	-1.91429250229191E-009
373.224365234375	7.42046601942548E-009
373.524627685547	7.21342630072286E-009
373.824920654297	1.61118531849525E-008
374.125183105469	1.84238775347012E-008
374.425445556641	1.75949423919519E-008
374.725738525391	9.89556525610169E-009
375.026000976562	1.25618084823032E-008
375.326263427734	9.22180021234453E-009
375.626556396484	4.58008875270366E-009
375.926818847656	8.85660167426749E-009
376.227081298828	4.30414459628992E-009
376.527374267578	3.4609117793849E-009
376.82763671875	-9.31587584851457E-010
377.127899169922	4.75355577123082E-009
377.428192138672	5.5502864526602E-009
377.728454589844	8.31660251776611E-009
378.028717041016	1.10448006296338E-008
378.329010009766	1.42759430943329E-008
378.629272460937	1.27625767731843E-008
378.929534912109	1.33274520308646E-008
379.229827880859	1.14166063269749E-008
379.530090332031	9.02373820110824E-009
379.830352783203	7.05387881438924E-009
380.130645751953	7.09072089932761E-009
380.430908203125	2.2804356181183E-009
380.731170654297	4.63458782462567E-009
381.031463623047	5.1008304247091E-009
381.331726074219	3.52701223782503E-009
381.631988525391	-8.02453312132023E-011
381.932281494141	-4.71134131707629E-010
382.232543945313	1.15686782375946E-009
382.532806396484	-1.51441703621913E-009
382.833099365234	1.3337606574737E-009
383.133361816406	4.64585081516589E-009
383.433624267578	5.62466961895325E-009
383.733917236328	3.69529362664878E-009
384.0341796875	6.84170542442075E-009
384.334442138672	3.3596239124023E-009
384.634735107422	3.96193383656041E-010
384.934997558594	1.56023816089146E-009
385.235260009766	3.38029426671937E-009
385.535552978516	2.50534126777779E-009
385.835815429687	8.69635385924994E-009
386.136077880859	1.0495929458898E-008
386.436370849609	6.74554323509824E-009
386.736633300781	4.30024726938427E-009
387.036895751953	6.97597446475129E-009
387.337188720703	1.260429982608E-009
387.637451171875	3.38882322203915E-009
387.937713623047	5.78136694073805E-009
388.238006591797	6.3539564720827E-009
388.538269042969	1.08144992960746E-009
388.838531494141	7.98219268460798E-010
389.138824462891	-2.62891175495383E-009
389.439086914063	-7.26377791249178E-010
389.739349365234	-9.21870246806122E-010
390.039642333984	-9.59232804298438E-010
390.339904785156	6.98279711830452E-010
390.640167236328	5.89879756152101E-010
390.940460205078	-1.89653115434396E-009
391.24072265625	3.8441086425145E-010
391.540985107422	2.80261369667301E-009
391.841278076172	2.63361576990917E-009
392.141540527344	5.06268138522614E-009
392.441802978516	6.82971634802243E-009
392.742095947266	2.17586415551807E-009
393.042358398438	2.14946660470616E-009
393.342651367188	2.30199392881048E-009
393.642913818359	2.27868746094373E-009
393.943176269531	1.86290116666044E-009
394.243469238281	6.80434286692844E-009
394.543731689453	6.39661923429458E-009
394.843994140625	5.6480753407584E-009
395.144287109375	7.46012407404351E-009
395.444549560547	5.41755351690654E-009
395.744812011719	5.12408293573685E-009
396.045104980469	5.03496799808545E-009
396.345367431641	6.31283247898295E-009
396.645629882812	4.74593120358691E-009
396.945922851562	9.23930887353208E-009
397.246185302734	9.60286428153267E-009
397.546447753906	1.54856483192134E-008
397.846740722656	2.04767580669341E-008
398.147003173828	2.25276721721457E-008
398.447265625	2.56180765489944E-008
398.74755859375	3.08527248193968E-008
399.047821044922	3.20636353023929E-008
399.348083496094	3.55585569877803E-008
399.648376464844	4.2235328123752E-008
399.948638916016	4.78951527327354E-008
400.248901367188	5.54586030432347E-008
400.549194335937	6.45651709874073E-008
400.849456787109	7.23089641496699E-008
401.149719238281	8.17462861846252E-008
401.450012207031	9.43286977417301E-008
401.750274658203	1.03810201323995E-007
402.050537109375	1.17567033441901E-007
402.350830078125	1.30423060795692E-007
402.651092529297	1.44174123306584E-007
402.951354980469	1.55694479531121E-007
403.251647949219	1.70744087313324E-007
403.551910400391	1.84291181426488E-007
403.852172851562	2.01765047336266E-007
404.152465820313	2.20448967525044E-007
404.452728271484	2.36995788327476E-007
404.752990722656	2.5403130621271E-007
405.050994873047	2.73651295401578E-007
405.348999023438	2.9386836786216E-007
405.647003173828	3.12930524160038E-007
405.945007324219	3.3523483011777E-007
406.243011474609	3.58331050165361E-007
406.540985107422	3.77547223706642E-007
406.838989257812	3.98326164940954E-007
407.136993408203	4.1813586904027E-007
407.434997558594	4.41008410234645E-007
407.733001708984	4.58295716043722E-007
408.031005859375	4.80341157071962E-007
408.329010009766	5.02734678775596E-007
408.627014160156	5.25112170635111E-007
408.924987792969	5.44940007785044E-007
409.222991943359	5.67671861517738E-007
409.52099609375	5.85794055041333E-007
409.819000244141	6.07007905273349E-007
410.117004394531	6.27546057785366E-007
410.415008544922	6.48869843189459E-007
410.713012695313	6.69381336138031E-007
411.010986328125	6.89906357820291E-007
411.308990478516	7.04974524978752E-007
411.606994628906	7.22810227671289E-007
411.904998779297	7.3562546276662E-007
412.203002929687	7.52996356823132E-007
412.501007080078	7.75194166635629E-007
412.799011230469	7.9352315651704E-007
413.096984863281	8.09662537903932E-007
413.394989013672	8.27442931949918E-007
413.692993164063	8.47900707867666E-007
413.990997314453	8.61926764628151E-007
414.289001464844	8.75144735346112E-007
414.587005615234	8.89134014414594E-007
414.885009765625	9.05525382677297E-007
415.183013916016	9.12819757559191E-007
415.480987548828	9.2400097173595E-007
415.778991699219	9.36906019433081E-007
416.076995849609	9.49825903262536E-007
416.375	9.55526502366411E-007
416.673004150391	9.6788426162675E-007
416.971008300781	9.77062541096529E-007
417.269012451172	9.87350176728796E-007
417.566986083984	9.96824951471353E-007
417.864990234375	1.01438308774959E-006
418.162994384766	1.02167666682362E-006
418.460998535156	1.03179002053366E-006
418.759002685547	1.04316484339506E-006
419.057006835937	1.05097308278346E-006
419.355010986328	1.05387800886092E-006
419.653015136719	1.06310869796289E-006
419.950988769531	1.07065432075615E-006
420.248992919922	1.07627715806302E-006
420.546997070313	1.0843137943084E-006
420.845001220703	1.08799144982186E-006
421.143005371094	1.09184077246027E-006
421.441009521484	1.09315863028314E-006
421.739013671875	1.09479617549368E-006
422.036987304687	1.09282450466708E-006
422.334991455078	1.09779091417295E-006
422.632995605469	1.10068685899023E-006
422.930999755859	1.10721930468571E-006
423.22900390625	1.11110580292006E-006
423.527008056641	1.11843905870046E-006
423.825012207031	1.12069494662137E-006
424.122985839844	1.12850955247268E-006
424.420989990234	1.12706618438096E-006
424.718994140625	1.12534735308145E-006
425.016998291016	1.12039128907782E-006
425.315002441406	1.12373732008564E-006
425.613006591797	1.11990516415972E-006
425.911010742188	1.12252939743485E-006
426.209014892578	1.13162263915001E-006
426.506988525391	1.13525243250479E-006
426.804992675781	1.13407236312923E-006
427.102996826172	1.13300632165192E-006
427.401000976562	1.13054591110995E-006
427.699005126953	1.11960127924249E-006
427.997009277344	1.1233951227041E-006
428.295013427734	1.11633255528432E-006
428.592987060547	1.11131646463036E-006
428.890991210937	1.10823418708605E-006
429.188995361328	1.10549308374175E-006
429.486999511719	1.0919520718744E-006
429.785003662109	1.09156098915264E-006
430.0830078125	1.0859804433494E-006
430.381011962891	1.0777134775708E-006
430.678985595703	1.07260177628632E-006
430.976989746094	1.06914728803531E-006
431.274993896484	1.06202173810743E-006
431.572998046875	1.05859123777918E-006
431.871002197266	1.05586207155284E-006
432.169006347656	1.05230958524771E-006
432.467010498047	1.04925254618138E-006
432.765014648438	1.04433865999454E-006
433.06298828125	1.03630338799121E-006
433.360992431641	1.03093293546408E-006
433.658996582031	1.02673118362873E-006
433.957000732422	1.01886325865053E-006
434.255004882812	1.01267914942582E-006
434.553009033203	1.00891941201553E-006
434.851013183594	1.00200043107179E-006
435.148986816406	9.90656303656579E-007
435.446990966797	9.85063934422215E-007
435.744995117188	9.78287062025629E-007
436.038665771484	9.72879661276238E-007
436.332366943359	9.64843366091372E-007
436.626037597656	9.60605120781111E-007
436.919708251953	9.53390781432972E-007
437.213409423828	9.44959595017281E-007
437.507080078125	9.34318109102605E-007
437.800750732422	9.28200108774035E-007
438.094451904297	9.21336948067619E-007
438.388122558594	9.16826991215203E-007
438.681823730469	9.08936840460228E-007
438.975494384766	9.03576335531398E-007
439.269165039063	8.99429323908407E-007
439.562866210937	8.96037249731307E-007
439.856536865234	8.89145042037853E-007
440.150207519531	8.8583249180374E-007
440.443908691406	8.84374742327054E-007
440.737579345703	8.79195226843876E-007
441.03125	8.74959653174301E-007
441.324951171875	8.7171531504282E-007
441.618621826172	8.67902485879313E-007
441.912292480469	8.60084412579454E-007
442.205993652344	8.5517012848868E-007
442.499664306641	8.47629394229443E-007
442.793334960937	8.40049779071705E-007
443.087036132812	8.34735544685827E-007
443.380706787109	8.33206684092147E-007
443.674377441406	8.26177767976333E-007
443.968078613281	8.1969415077765E-007
444.261749267578	8.14624115719198E-007
444.555419921875	8.09275206847815E-007
444.84912109375	8.01132671313098E-007
445.142791748047	8.00153543423221E-007
445.436462402344	7.95863229541283E-007
445.730163574219	7.94282357219345E-007
446.023834228516	7.90473336564901E-007
446.317504882812	7.89921784871694E-007
446.611206054687	7.86816542586166E-007
446.904876708984	7.86443251854507E-007
447.198547363281	7.8653442869836E-007
447.492248535156	7.83839993800939E-007
447.785919189453	7.81250491854735E-007
448.07958984375	7.77756724801293E-007
448.373291015625	7.75118962792476E-007
448.666961669922	7.70783401549124E-007
448.960632324219	7.70046085563081E-007
449.254333496094	7.64982871714892E-007
449.548004150391	7.57547923058155E-007
449.841674804687	7.5051701742268E-007
450.135375976562	7.43521184176643E-007
450.429046630859	7.34326818019326E-007
450.722717285156	7.2770615133777E-007
451.016418457031	7.25070890439383E-007
451.310089111328	7.23222058240935E-007
451.603759765625	7.18532021437568E-007
451.8974609375	7.16246745469107E-007
452.191131591797	7.12841256245156E-007
452.484802246094	7.10987990260037E-007
452.778503417969	7.05313880189351E-007
453.072174072266	7.04038484400371E-007
453.365844726562	7.01899864452571E-007
453.659545898438	7.00917610174656E-007
453.953216552734	6.9832123017477E-007
454.246887207031	6.97933955962071E-007
454.540588378906	6.95276810347423E-007
454.834259033203	6.9805076918783E-007
455.1279296875	6.95067114975245E-007
455.421630859375	6.94916025167913E-007
455.715301513672	6.93395350026549E-007
456.008972167969	6.92082437581121E-007
456.302673339844	6.84136409745406E-007
456.596343994141	6.80393782204192E-007
456.890014648438	6.70745293973596E-007
457.183715820313	6.65276218114741E-007
457.477386474609	6.58122303320852E-007
457.771057128906	6.5191858311664E-007
458.064758300781	6.49128537588695E-007
458.358428955078	6.45842874291702E-007
458.652099609375	6.40918642602628E-007
458.94580078125	6.37346659004834E-007
459.239471435547	6.36538743492565E-007
459.533142089844	6.31957391306059E-007
459.826843261719	6.29211058367218E-007
460.120513916016	6.24911820068519E-007
460.414184570313	6.21174137904745E-007
460.707885742188	6.17320949913847E-007
461.001556396484	6.14201951520954E-007
461.295227050781	6.1250165117599E-007
461.588928222656	6.13007557603851E-007
461.882598876953	6.1161097164586E-007
462.17626953125	6.11089546964649E-007
462.469970703125	6.12083340456593E-007
462.763641357422	6.08605887464364E-007
463.057312011719	6.06074991083005E-007
463.351013183594	6.06001492542418E-007
463.644683837891	6.04520266733743E-007
463.938354492188	5.97043936068076E-007
464.232055664063	5.92998048887239E-007
464.525726318359	5.86155124437937E-007
464.819396972656	5.77350704134005E-007
465.113098144531	5.69992721466406E-007
465.406768798828	5.67635936477018E-007
465.700439453125	5.65820471365441E-007
465.994140625	5.62709203677514E-007
466.287811279297	5.63067885650526E-007
466.581481933594	5.62027366868278E-007
466.875183105469	5.59774775865662E-007
467.168853759766	5.54240102701442E-007
467.462524414063	5.52772064565943E-007
467.756225585937	5.47719082533149E-007
468.049896240234	5.42887619303656E-007
468.343566894531	5.39461780135753E-007
468.637268066406	5.41596364200814E-007
468.930938720703	5.39993720849452E-007
469.224609375	5.41312545010442E-007
469.518310546875	5.422497224572E-007
469.811981201172	5.42819236670766E-007
470.105651855469	5.41106203399977E-007
470.399353027344	5.41838687695417E-007
470.693023681641	5.40135090432159E-007
470.986694335937	5.36325728717202E-007
471.280395507812	5.33704053395923E-007
471.574066162109	5.31289288119297E-007
471.867736816406	5.24603819940239E-007
472.161437988281	5.21818776633154E-007
472.455108642578	5.2196020305928E-007
472.748779296875	5.1751675300693E-007
473.04248046875	5.13432894422294E-007
473.336151123047	5.11832070060336E-007
473.629821777344	5.0692341346803E-007
473.923522949219	4.99965437938954E-007
474.217193603516	4.9716936700861E-007
474.510864257812	4.95212418627489E-007
474.804565429687	4.94925814109592E-007
475.098236083984	4.97030953283684E-007
475.391906738281	4.98810265980865E-007
475.685607910156	4.98224778766598E-007
475.979278564453	4.99260693231918E-007
476.27294921875	4.99720954394434E-007
476.566650390625	4.97473138239002E-007
476.860321044922	4.97893836381991E-007
477.153991699219	5.00263581670879E-007
477.447692871094	4.98701126616652E-007
477.741363525391	4.98185443120747E-007
478.035034179687	4.96888844736532E-007
478.328735351562	4.96613893119502E-007
478.622406005859	4.94972255182802E-007
478.916076660156	4.95453548410296E-007
479.209777832031	4.94294511099724E-007
479.503448486328	4.93353581987321E-007
479.797119140625	4.91034654714895E-007
480.0908203125	4.86770431962214E-007
480.384490966797	4.83471637835464E-007
480.678161621094	4.82041059512994E-007
480.971862792969	4.80820972370566E-007
481.265533447266	4.78189974728593E-007
481.559204101562	4.79152106436231E-007
481.852905273438	4.76460087384112E-007
482.146575927734	4.73484334406749E-007
482.440246582031	4.70412913955442E-007
482.733947753906	4.68745298576323E-007
483.027618408203	4.6665769559695E-007
483.3212890625	4.67505344659003E-007
483.614990234375	4.65822864725851E-007
483.908660888672	4.67330778519681E-007
484.202331542969	4.6886771087884E-007
484.496032714844	4.69541703296272E-007
484.789703369141	4.7006074055389E-007
485.083374023438	4.71097990839553E-007
485.377075195313	4.71141902380623E-007
485.670745849609	4.70935589191868E-007
485.964416503906	4.7142796688604E-007
486.258117675781	4.69810231606971E-007
486.551788330078	4.70973077426606E-007
486.845458984375	4.73758859698137E-007
487.13916015625	4.72431736397994E-007
487.432830810547	4.71816292701988E-007
487.726501464844	4.70486497761158E-007
488.020202636719	4.70512048877936E-007
488.313873291016	4.65316105646707E-007
488.607543945313	4.63959366925337E-007
488.901245117188	4.60807484614634E-007
489.194915771484	4.61108186300407E-007
489.488586425781	4.5838913820262E-007
489.782287597656	4.57823887245468E-007
490.075958251953	4.5771648160553E-007
490.36962890625	4.59791891671557E-007
490.663330078125	4.59225702797994E-007
490.957000732422	4.57262075315157E-007
491.250671386719	4.55054049552928E-007
491.544372558594	4.55700416068794E-007
491.838043212891	4.52580877663422E-007
492.131713867188	4.5249765889821E-007
492.425415039063	4.5390927994049E-007
492.719085693359	4.56901290135647E-007
493.012756347656	4.56109319202369E-007
493.306457519531	4.59074499303824E-007
493.600128173828	4.57069404546928E-007
493.893798828125	4.59377133665839E-007
494.1875	4.59062363233897E-007
494.481170654297	4.58821858728697E-007
494.774841308594	4.58142864090405E-007
495.068542480469	4.59766340554779E-007
495.362213134766	4.57300700418273E-007
495.655883789063	4.56770862911071E-007
495.949584960937	4.55703258239737E-007
496.243255615234	4.54710374242495E-007
496.536926269531	4.55292735068724E-007
496.830627441406	4.54690848528116E-007
497.124298095703	4.54571591035346E-007
497.41796875	4.53796246802085E-007
497.711669921875	4.50964734000081E-007
498.005340576172	4.4880022187499E-007
498.299011230469	4.46168627377119E-007
498.592712402344	4.42543864664913E-007
498.886383056641	4.41361521552608E-007
499.180053710937	4.43330634425365E-007
499.473754882812	4.44236292196365E-007
499.767425537109	4.44794949316929E-007
500.061096191406	4.46382472318874E-007
500.354797363281	4.46679592869259E-007
500.648468017578	4.44505900532022E-007
500.942138671875	4.4354595729601E-007
501.23583984375	4.43452563558822E-007
501.529510498047	4.43726179355508E-007
501.823181152344	4.44560527057547E-007
502.116882324219	4.45362672962801E-007
502.410552978516	4.46733224634954E-007
502.704223632812	4.48031130417803E-007
502.997924804687	4.50305293497877E-007
503.291595458984	4.52417708629582E-007
503.585266113281	4.51796637435109E-007
503.878967285156	4.52168251285912E-007
504.172637939453	4.51882158358785E-007
504.46630859375	4.48850499878972E-007
504.760009765625	4.4820345124208E-007
505.053680419922	4.50672672513974E-007
505.347351074219	4.48337118541531E-007
505.641052246094	4.4781870656152E-007
505.934722900391	4.48308668410391E-007
506.228393554687	4.46767558059946E-007
506.522094726562	4.45531867399041E-007
506.815765380859	4.46455857172623E-007
507.109436035156	4.46435620915508E-007
507.403137207031	4.44854094894254E-007
507.696807861328	4.44665374743636E-007
507.990478515625	4.43355020252056E-007
508.2841796875	4.41479500068454E-007
508.577850341797	4.40544880575544E-007
508.871520996094	4.41538674067488E-007
509.165222167969	4.41249369487196E-007
509.458892822266	4.41947690887901E-007
509.752563476562	4.44652840769777E-007
510.046264648438	4.44415320544067E-007
510.339935302734	4.46865385583806E-007
510.633605957031	4.49212791409082E-007
510.927307128906	4.50983719701981E-007
511.220977783203	4.50890127012826E-007
511.5146484375	4.54817040917987E-007
511.808349609375	4.54077820677412E-007
512.10205078125	4.54193468613084E-007
512.395690917969	4.53623187013363E-007
512.689392089844	4.52770677838998E-007
512.983093261719	4.50199422630249E-007
513.276733398438	4.50355969405791E-007
513.570434570313	4.51021207936719E-007
513.864135742188	4.51400467227359E-007
514.157775878906	4.52801060646379E-007
514.451477050781	4.54277113703938E-007
514.745178222656	4.52795120509109E-007
515.038818359375	4.5257098690854E-007
515.33251953125	4.51699548875695E-007
515.626220703125	4.49659694368165E-007
515.919860839844	4.4848533775621E-007
516.213562011719	4.48395212515607E-007
516.507263183594	4.45982323071803E-007
516.800903320313	4.44419271161678E-007
517.094604492188	4.43713048525751E-007
517.388305664063	4.45489945377631E-007
517.681945800781	4.46201369186383E-007
517.975646972656	4.45437336793475E-007
518.269348144531	4.48418859377853E-007
518.56298828125	4.49165611371427E-007
518.856689453125	4.48299971367305E-007
519.150390625	4.50026931275715E-007
519.444030761719	4.51200577344935E-007
519.737731933594	4.49632182153437E-007
520.031433105469	4.52646673920754E-007
520.325073242188	4.52960279062609E-007
520.618774414063	4.55127349141549E-007
520.912475585937	4.56000378790122E-007
521.206115722656	4.58510243106502E-007
521.499816894531	4.57760648941985E-007
521.793518066406	4.57976085499467E-007
522.087158203125	4.56756396260971E-007
522.380859375	4.58306715245271E-007
522.674560546875	4.55672221733039E-007
522.968200683594	4.54229052593291E-007
523.261901855469	4.54339755151523E-007
523.555603027344	4.52653864613239E-007
523.849243164063	4.48362328597796E-007
524.142944335937	4.49323579232441E-007
524.436645507812	4.47546739223981E-007
524.730285644531	4.44836643964663E-007
525.023986816406	4.41207049561854E-007
525.317687988281	4.41704571585433E-007
525.611328125	4.37730108160395E-007
525.905029296875	4.37157325450244E-007
526.19873046875	4.35942723697735E-007
526.492370605469	4.35734790471543E-007
526.786071777344	4.34332122267733E-007
527.079772949219	4.35815621813163E-007
527.373413085937	4.35213024729819E-007
527.667114257812	4.36397755265716E-007
527.960815429687	4.36377774803987E-007
528.254455566406	4.36829850514187E-007
528.548156738281	4.34753076206107E-007
528.841857910156	4.3540558181121E-007
529.135498046875	4.33949196576577E-007
529.42919921875	4.34452317676914E-007
529.722900390625	4.34639702007189E-007
530.016540527344	4.37619263493616E-007
530.310241699219	4.35846146729091E-007
530.603942871094	4.36816179671951E-007
530.897583007812	4.35573696222491E-007
531.191284179687	4.32767421898461E-007
531.484985351562	4.29205442742386E-007
531.778625488281	4.29022890102715E-007
532.072326660156	4.27394240887224E-007
532.366027832031	4.27692526727697E-007
532.65966796875	4.27395036695089E-007
532.953369140625	4.27288057380792E-007
533.2470703125	4.26072517711873E-007
533.540710449219	4.22313661374574E-007
533.834411621094	4.18938356006038E-007
534.128112792969	4.17202699054542E-007
534.421752929687	4.14989557384615E-007
534.715454101562	4.12779428415888E-007
535.009155273438	4.12419865369884E-007
535.302795410156	4.1088469515671E-007
535.596496582031	4.11056760185602E-007
535.890197753906	4.09267784107215E-007
536.183837890625	4.05395553570997E-007
536.4775390625	4.0217702235168E-007
536.771240234375	4.00117244225839E-007
537.064880371094	3.97993687784037E-007
537.358581542969	3.98231861709064E-007
537.652282714844	4.00242015530239E-007
537.945922851562	4.01848097908442E-007
538.239624023438	4.0214408159045E-007
538.533325195313	4.00147513346383E-007
538.826965332031	3.97975412624874E-007
539.120666503906	3.97295821130683E-007
539.414367675781	3.95124516217038E-007
539.7080078125	3.950665359298E-007
540.001708984375	3.95932602259563E-007
540.29541015625	3.96800771795824E-007
540.589050292969	3.96057401985672E-007
540.882751464844	3.98542226776044E-007
541.176452636719	3.96704649574531E-007
541.470092773438	3.96446893091706E-007
541.763793945313	3.94774986034463E-007
542.057495117188	3.94495856426147E-007
542.351135253906	3.92764889056707E-007
542.644836425781	3.91984713132842E-007
542.938537597656	3.90086796642208E-007
543.232177734375	3.87450540983991E-007
543.52587890625	3.85382605827544E-007
543.819580078125	3.82610636506797E-007
544.113220214844	3.82033476853394E-007
544.406921386719	3.81272343474848E-007
544.700622558594	3.80085708684419E-007
544.994262695313	3.78296391545518E-007
545.287963867188	3.77086109892844E-007
545.581665039063	3.73774668105398E-007
545.875305175781	3.70819009276602E-007
546.169006347656	3.69548587286772E-007
546.456604003906	3.67992328165201E-007
546.744201660156	3.63894372412687E-007
547.031799316406	3.61507346724466E-007
547.319396972656	3.579499150419E-007
547.606994628906	3.56465733375444E-007
547.894592285156	3.5530482023205E-007
548.182189941406	3.54651803036177E-007
548.469787597656	3.55042089950075E-007
548.757385253906	3.56968001824498E-007
549.044982910156	3.55560160869572E-007
549.332641601562	3.53845194922542E-007
549.620239257812	3.55556579734184E-007
549.907836914063	3.54996558371567E-007
550.195434570313	3.53678586861861E-007
550.483032226562	3.54522484258268E-007
550.770629882812	3.53207269654376E-007
551.058227539063	3.52857085772484E-007
551.345825195313	3.53491657278937E-007
551.633422851562	3.52412030224514E-007
551.921020507812	3.50344322441742E-007
552.208618164063	3.51263850006944E-007
552.496215820313	3.4869779597102E-007
552.783813476562	3.46072511092643E-007
553.071411132812	3.45236969678808E-007
553.359008789063	3.44836450949515E-007
553.646606445313	3.43338484753986E-007
553.934265136719	3.42672279884937E-007
554.221862792969	3.42285034093948E-007
554.509460449219	3.39381415415119E-007
554.797058105469	3.36071025230922E-007
555.084655761719	3.33300107513423E-007
555.372253417969	3.31462302938235E-007
555.659851074219	3.295673991488E-007
555.947448730469	3.28006478866882E-007
556.235046386719	3.2751410117271E-007
556.522644042969	3.25649949672879E-007
556.810241699219	3.23285121339723E-007
557.097839355469	3.20698688938137E-007
557.385437011719	3.18442943125774E-007
557.673034667969	3.16829300572863E-007
557.960632324219	3.15191215349842E-007
558.248229980469	3.13019597797393E-007
558.535827636719	3.12754366404988E-007
558.823486328125	3.12241411393188E-007
559.111083984375	3.10186948127011E-007
559.398681640625	3.09914781837506E-007
559.686279296875	3.10002519654518E-007
559.973876953125	3.07015596945348E-007
560.261474609375	3.06552351503342E-007
560.549072265625	3.07381981201615E-007
560.836669921875	3.06787995896229E-007
561.124267578125	3.05257486843402E-007
561.411865234375	3.06149928519517E-007
561.699462890625	3.05122199506513E-007
561.987060546875	3.02821177911028E-007
562.274658203125	3.02494441939416E-007
562.562255859375	3.02665256413093E-007
562.849853515625	3.02311434552394E-007
563.137451171875	3.01141596992238E-007
563.425109863281	3.01827270732247E-007
563.712707519531	3.00883414183772E-007
564.000305175781	2.99543472692676E-007
564.287902832031	2.98392166087069E-007
564.575500488281	2.98725410630141E-007
564.863098144531	2.96161630330971E-007
565.150695800781	2.94495976049802E-007
565.438293457031	2.91377887151612E-007
565.725891113281	2.88401167836128E-007
566.013488769531	2.8581683864104E-007
566.301086425781	2.84621421542397E-007
566.588684082031	2.83076104778957E-007
566.876281738281	2.81791329825865E-007
567.163879394531	2.80158189980284E-007
567.451477050781	2.78868270697785E-007
567.739074707031	2.76971263701853E-007
568.026672363281	2.74346064088604E-007
568.314331054687	2.72583491778278E-007
568.601928710937	2.72002750989486E-007
568.889526367188	2.70768993004822E-007
569.177124023438	2.69362232074855E-007
569.464721679687	2.68650950374649E-007
569.752319335937	2.69428880983469E-007
570.039916992188	2.68188443897088E-007
570.327514648438	2.66966651452094E-007
570.615112304687	2.65608747440638E-007
570.902709960937	2.64894396195814E-007
571.190307617188	2.63009553691518E-007
571.477905273438	2.62364380887448E-007
571.765502929687	2.6141918851863E-007
572.053100585937	2.61900396480996E-007
572.340698242188	2.61210857388505E-007
572.628295898438	2.62995683897316E-007
572.915893554687	2.62337351841779E-007
573.203552246094	2.62101508496926E-007
573.491149902344	2.61587217664783E-007
573.778747558594	2.6079544568347E-007
574.066345214844	2.58703323652298E-007
574.353942871094	2.5993222152465E-007
574.641540527344	2.5967926831072E-007
574.929138183594	2.57874717135564E-007
575.216735839844	2.57263820913067E-007
575.504333496094	2.56038617862941E-007
575.791931152344	2.52738971084909E-007
576.079528808594	2.51354123292913E-007
576.367126464844	2.51371574222503E-007
576.654724121094	2.51493446512541E-007
576.942321777344	2.50574117899305E-007
577.229919433594	2.48808248670684E-007
577.517517089844	2.46790506253092E-007
577.80517578125	2.45699482093187E-007
578.0927734375	2.43778373487658E-007
578.38037109375	2.42134348127365E-007
578.66796875	2.41358918628976E-007
578.95556640625	2.40328859035799E-007
579.2431640625	2.38640069483154E-007
579.53076171875	2.37538529290759E-007
579.818359375	2.3678555294282E-007
580.10595703125	2.37171676076287E-007
580.3935546875	2.36012013488107E-007
580.68115234375	2.3528363612968E-007
580.96875	2.3250053970969E-007
581.25634765625	2.3087361000762E-007
581.5439453125	2.28408666202995E-007
581.83154296875	2.28023893100726E-007
582.119140625	2.27846655320718E-007
582.40673828125	2.27600935431838E-007
582.694396972656	2.28037720262364E-007
582.981994628906	2.27411661057886E-007
583.269592285156	2.26497931521408E-007
583.557189941406	2.27202335167931E-007
583.844787597656	2.28228799414865E-007
584.132385253906	2.28112568834149E-007
584.419982910156	2.28794192480564E-007
584.707580566406	2.2840018232273E-007
584.995178222656	2.26770012545785E-007
585.282775878906	2.2584016790006E-007
585.570373535156	2.25118910179845E-007
585.857971191406	2.26006278580826E-007
586.145568847656	2.26575025408238E-007
586.433166503906	2.2637482288701E-007
586.720764160156	2.27102901817489E-007
587.008361816406	2.27937789532007E-007
587.296020507812	2.26823800630882E-007
587.583618164062	2.26938311698177E-007
587.871215820312	2.26310646667116E-007
588.158813476563	2.25724292590712E-007
588.446411132813	2.23893934503394E-007
588.734008789063	2.23741778881958E-007
589.021606445313	2.22296961283064E-007
589.309204101562	2.21442391534765E-007
589.596801757812	2.20841613440825E-007
589.884399414062	2.20392138317038E-007
590.171997070312	2.18645482163993E-007
590.459594726563	2.18042330857315E-007
590.747192382813	2.17416243231128E-007
591.034790039063	2.16823963228308E-007
591.322387695313	2.16663863739086E-007
591.609985351562	2.17638529420583E-007
591.897583007812	2.17817913039653E-007
592.185241699219	2.17170082805751E-007
592.472839355469	2.17235111676928E-007
592.760437011719	2.16236529126945E-007
593.048034667969	2.14527332786929E-007
593.335632324219	2.1436537167574E-007
593.623229980469	2.14664211739546E-007
593.910827636719	2.13879772559267E-007
594.198425292969	2.13593864373252E-007
594.486022949219	2.14738861359365E-007
594.773620605469	2.14952962096504E-007
595.061218261719	2.14825789157658E-007
595.348815917969	2.15410807413718E-007
595.636413574219	2.16088722027052E-007
595.924011230469	2.16430549926372E-007
596.211608886719	2.16205975789308E-007
596.499206542969	2.16555761767268E-007
596.786804199219	2.14492843042535E-007
597.074462890625	2.13899284062791E-007
597.362060546875	2.12289691603473E-007
597.649658203125	2.11001790262344E-007
597.937255859375	2.1018288975938E-007
598.224853515625	2.1127790716946E-007
598.512451171875	2.12222900586312E-007
598.800048828125	2.12281022982097E-007
599.087646484375	2.12361925377991E-007
599.375244140625	2.11082891610204E-007
599.662841796875	2.11026872420916E-007
599.950439453125	2.09411538776294E-007
600.238037109375	2.10634411246247E-007
600.525634765625	2.11673039984817E-007
600.813232421875	2.13575773955199E-007
601.100830078125	2.13208622312777E-007
601.388427734375	2.13251681202564E-007
601.676086425781	2.12045051739551E-007
601.963684082031	2.1150520979063E-007
602.251281738281	2.11038198472124E-007
602.538879394531	2.09895887337552E-007
602.826477050781	2.09724476007978E-007
603.114074707031	2.08935745149574E-007
603.401672363281	2.08550417823972E-007
603.689270019531	2.08454949301995E-007
603.976867675781	2.08502598297855E-007
604.264465332031	2.07639004656812E-007
604.552062988281	2.0719801341329E-007
604.839660644531	2.0735843975217E-007
605.127258300781	2.06475178288201E-007
605.414855957031	2.06789280809971E-007
605.702453613281	2.06994727136589E-007
605.990051269531	2.06565445637352E-007
606.277648925781	2.06025219995354E-007
606.565307617187	2.05840649414313E-007
606.852905273437	2.06734910079831E-007
607.140502929688	2.08462310524737E-007
607.428100585938	2.10096160913054E-007
607.715698242188	2.1027149443853E-007
608.003295898438	2.10727151284118E-007
608.290893554687	2.09552922569856E-007
608.578491210937	2.0832148095451E-007
608.866088867187	2.08199395501651E-007
609.153686523437	2.08076755825459E-007
609.441284179688	2.07512314887026E-007
609.728881835938	2.07664143658803E-007
610.016479492188	2.07934348850358E-007
610.304077148438	2.07035441235348E-007
610.591674804687	2.0796292687919E-007
610.879272460937	2.08420871672388E-007
611.166870117187	2.08747223950922E-007
611.454528808594	2.08484962627153E-007
611.742126464844	2.07623500614318E-007
612.029724121094	2.06196105523304E-007
612.317321777344	2.04147795557219E-007
612.604919433594	2.05078720227903E-007
612.892517089844	2.04306985551739E-007
613.180114746094	2.03861361569579E-007
613.467712402344	2.03991035618856E-007
613.755310058594	2.03557377176367E-007
614.042907714844	2.01019972223548E-007
614.330505371094	2.00751728129944E-007
614.618103027344	2.00041327502731E-007
614.905700683594	1.99596357219889E-007
615.193298339844	2.00071085032505E-007
615.480895996094	1.98421744812549E-007
615.768493652344	1.98067766632448E-007
616.05615234375	1.98675735418874E-007
616.34375	1.97419723235726E-007
616.63134765625	1.98603359535809E-007
616.9189453125	1.98881465962586E-007
617.20654296875	1.97711827354397E-007
617.494140625	1.97274601987374E-007
617.78173828125	1.9673167628298E-007
618.0693359375	1.9428365760632E-007
618.35693359375	1.93526147995726E-007
618.64453125	1.94194299751871E-007
618.93212890625	1.9375274007416E-007
619.2197265625	1.93100376577604E-007
619.50732421875	1.93000431636392E-007
619.794921875	1.92517163100092E-007
620.08251953125	1.90973494795799E-007
620.3701171875	1.90348870887647E-007
620.65771484375	1.89367241887339E-007
620.945373535156	1.89269982797668E-007
621.232971191406	1.9018526131731E-007
621.520568847656	1.91491238865638E-007
621.808166503906	1.90587769566264E-007
622.095764160156	1.9077157276115E-007
622.383361816406	1.89209671930257E-007
622.670959472656	1.885032077098E-007
622.958557128906	1.87555713182519E-007
623.246154785156	1.88179413385114E-007
623.533752441406	1.8797904033363E-007
623.821350097656	1.87392643624662E-007
624.108947753906	1.87480182489708E-007
624.396545410156	1.86418816383593E-007
624.684143066406	1.85741853897525E-007
624.971740722656	1.85046829415114E-007
625.259338378906	1.8584240990549E-007
625.546997070312	1.83667637543294E-007
625.834594726563	1.83045486323863E-007
626.122192382813	1.82425836214861E-007
626.409790039063	1.83367674821966E-007
626.697387695313	1.82452296826341E-007
626.984985351562	1.82647738711239E-007
627.272583007812	1.83051071189766E-007
627.560180664062	1.81785495101394E-007
627.847778320312	1.79370076125451E-007
628.135375976563	1.78761482061418E-007
628.422973632813	1.79444768377834E-007
628.710571289063	1.78019973873234E-007
628.998168945313	1.7799293061671E-007
629.285766601562	1.79230255525908E-007
629.573364257812	1.78992962673874E-007
629.860961914062	1.77229935616197E-007
630.148559570312	1.76499710846656E-007
630.436218261719	1.74738687519493E-007
630.723815917969	1.73060598740449E-007
631.011413574219	1.72897870243105E-007
631.299011230469	1.72100968143241E-007
631.586608886719	1.72943572351869E-007
631.874206542969	1.7400908802756E-007
632.161804199219	1.73008672277319E-007
632.449401855469	1.73073289033709E-007
632.736999511719	1.7506245342247E-007
633.019775390625	1.73023124716565E-007
633.302490234375	1.72922355545779E-007
633.585266113281	1.73295902072823E-007
633.867980957031	1.72733180647811E-007
634.150756835938	1.70276933886271E-007
634.433471679688	1.70951636846439E-007
634.716247558594	1.71263749848549E-007
634.998962402344	1.71123673453621E-007
635.28173828125	1.70107867347724E-007
635.564453125	1.70490253026401E-007
635.847229003906	1.6858342632986E-007
636.129943847656	1.66899056353031E-007
636.412719726563	1.66868602491377E-007
636.695495605469	1.66018594427442E-007
636.978210449219	1.65883292879698E-007
637.260986328125	1.66456032957285E-007
637.543701171875	1.66500910836476E-007
637.826477050781	1.65973801813379E-007
638.109191894531	1.67043396004374E-007
638.391967773437	1.67244749604833E-007
638.674682617187	1.67040411724884E-007
638.957458496094	1.6607229724741E-007
639.240173339844	1.64954698789188E-007
639.52294921875	1.63333609748406E-007
639.805725097656	1.61279345434195E-007
640.088439941406	1.6084847231923E-007
640.371215820312	1.61291410449849E-007
640.653930664062	1.59759224516165E-007
640.936706542969	1.59968450930137E-007
641.219421386719	1.60092724854621E-007
641.502197265625	1.59743109406918E-007
641.784912109375	1.57731875560785E-007
642.067687988281	1.58334401589855E-007
642.350402832031	1.57463787786583E-007
642.633178710937	1.56801206685486E-007
642.915893554687	1.56479018187383E-007
643.198669433594	1.56074449364496E-007
643.4814453125	1.56241725335349E-007
643.76416015625	1.560123763511E-007
644.046936035156	1.55788868028139E-007
644.329650878906	1.56155934405433E-007
644.612426757812	1.55754847241951E-007
644.895141601562	1.55201092866264E-007
645.177917480469	1.54196513335592E-007
645.460632324219	1.54006187358391E-007
645.743408203125	1.53358115539959E-007
646.026123046875	1.54680463992918E-007
646.308898925781	1.53763409116436E-007
646.591613769531	1.53635184574341E-007
646.874389648438	1.53222430299138E-007
647.157165527344	1.52093292626887E-007
647.439880371094	1.51605959786139E-007
647.72265625	1.52141197418132E-007
648.00537109375	1.53444574380046E-007
648.288146972656	1.54020341369687E-007
648.570861816406	1.53081003873012E-007
648.853637695313	1.52768137695602E-007
649.136352539063	1.52631670857772E-007
649.419128417969	1.51118044300347E-007
649.701843261719	1.50465808701483E-007
649.984619140625	1.51087007793649E-007
650.267333984375	1.50643160168329E-007
650.550109863281	1.49216347722358E-007
650.832885742188	1.50160673229038E-007
651.115600585938	1.49560165141338E-007
651.398376464844	1.48993521520424E-007
651.681091308594	1.48379967868095E-007
651.9638671875	1.50093725892475E-007
652.24658203125	1.49017637340876E-007
652.529357910156	1.4867762843096E-007
652.812072753906	1.49158552176232E-007
653.094848632813	1.49187499687287E-007
653.377563476563	1.48585527881551E-007
653.660339355469	1.49274072214212E-007
653.943054199219	1.49233855495368E-007
654.225830078125	1.48377807818179E-007
654.508605957031	1.47853370435769E-007
654.791320800781	1.46577903592515E-007
655.074096679688	1.44495999165883E-007
655.356811523437	1.42941715353118E-007
655.639587402344	1.42608129749533E-007
655.922302246094	1.42189961138683E-007
656.205078125	1.41844481049702E-007
656.48779296875	1.42078889098229E-007
656.770568847656	1.42262763347389E-007
657.053283691406	1.41762726002526E-007
657.336059570312	1.40584020869028E-007
657.618835449219	1.3950688071418E-007
657.901550292969	1.38324480758456E-007
658.184326171875	1.38918750280936E-007
658.467041015625	1.37034362523991E-007
658.749816894531	1.38002519634028E-007
659.032531738281	1.39484825467662E-007
659.315307617187	1.39249834774091E-007
659.598022460937	1.38205237476541E-007
659.880798339844	1.39329571879898E-007
660.163513183594	1.37745871597872E-007
660.4462890625	1.35677609591767E-007
660.72900390625	1.34980524535422E-007
661.011779785156	1.34299824594564E-007
661.294555664062	1.33616239850198E-007
661.577270507812	1.34176644905892E-007
661.860046386719	1.33913331978874E-007
662.142761230469	1.34194365841722E-007
662.425537109375	1.34522196049147E-007
662.708251953125	1.3499133899586E-007
662.991027832031	1.33500307697432E-007
663.273742675781	1.34161282971945E-007
663.556518554687	1.33861803419677E-007
663.839233398438	1.33198597040973E-007
664.122009277344	1.32111196649021E-007
664.404724121094	1.32879364400651E-007
664.6875	1.33924160650167E-007
664.970275878906	1.33766590693085E-007
665.252990722656	1.34420474751096E-007
665.535766601562	1.35624105723764E-007
665.818481445313	1.35329813133467E-007
666.101257324219	1.33035271687731E-007
666.383972167969	1.33760011067352E-007
666.666748046875	1.32697479671151E-007
666.949462890625	1.31603286490645E-007
667.232238769531	1.32071036773596E-007
667.514953613281	1.31566224581547E-007
667.797729492188	1.30514379748092E-007
668.080444335938	1.30014996102545E-007
668.363220214844	1.3062775394701E-007
668.64599609375	1.30188780644858E-007
668.9287109375	1.30908901496696E-007
669.211486816406	1.30654086660797E-007
669.494201660156	1.30773756268354E-007
669.776977539063	1.28651933550827E-007
670.059692382813	1.28541827848494E-007
670.342468261719	1.27368906532865E-007
670.625183105469	1.2742805211019E-007
670.907958984375	1.27175908914978E-007
671.190673828125	1.27906858438109E-007
671.473449707031	1.27422552509415E-007
671.756164550781	1.27124181403815E-007
672.038940429688	1.26522309074062E-007
672.321716308594	1.26964636137927E-007
672.604431152344	1.27254011772493E-007
672.88720703125	1.25532011452378E-007
673.169921875	1.26572928138557E-007
673.452697753906	1.26316962223427E-007
673.735412597656	1.25607670042882E-007
674.018188476563	1.2412030514497E-007
674.300903320312	1.23317633438091E-007
674.583679199219	1.21947522302435E-007
674.866394042969	1.21232176297781E-007
675.149169921875	1.1890809759052E-007
675.431945800781	1.17845665670302E-007
675.714660644531	1.19529005360164E-007
675.997436523437	1.17809520361334E-007
676.280151367187	1.17490586148961E-007
676.562927246094	1.18175925933883E-007
676.845642089844	1.19456416314279E-007
677.12841796875	1.18328173925875E-007
677.4111328125	1.20456604690844E-007
677.693908691406	1.19719601343604E-007
677.976623535156	1.19681260457583E-007
678.259399414062	1.18885203903574E-007
678.542114257812	1.19117203212227E-007
678.824890136719	1.18114812153181E-007
679.107666015625	1.19651076602167E-007
679.390380859375	1.19646372809257E-007
679.673156738281	1.18739102106247E-007
679.955871582031	1.17633533136541E-007
680.238647460937	1.17065511062719E-007
680.521362304687	1.15742579964717E-007
680.804138183594	1.15541403999941E-007
681.086853027344	1.15070648121218E-007
681.36962890625	1.14492280545164E-007
681.65234375	1.13657264932954E-007
681.935119628906	1.13862427042477E-007
682.217834472656	1.13806265744643E-007
682.500610351562	1.15098401920477E-007
682.783386230469	1.15856167326456E-007
683.066101074219	1.15921380938744E-007
683.348876953125	1.14667450645811E-007
683.631591796875	1.14417986196713E-007
683.914367675781	1.12865514267924E-007
684.197082519531	1.12807406082993E-007
684.479858398438	1.11980476447116E-007
684.762573242188	1.12215872150045E-007
685.045349121094	1.12898945303641E-007
685.328063964844	1.13781304378335E-007
685.61083984375	1.12056952161765E-007
685.8935546875	1.12844389832389E-007
686.176330566406	1.13701830173341E-007
686.459106445313	1.11917366041325E-007
686.741821289063	1.11549212533646E-007
687.024597167969	1.13558940029179E-007
687.307312011719	1.13066647600135E-007
687.590087890625	1.11490997767305E-007
687.872802734375	1.1109992215097E-007
688.155578613281	1.09645640122835E-007
688.438293457031	1.07307499774834E-007
688.721069335938	1.07252603243069E-007
689.003784179688	1.06853256909289E-007
689.286560058594	1.0658427385124E-007
689.569274902344	1.07263304016669E-007
689.85205078125	1.07417285732936E-007
690.134826660156	1.0677277373361E-007
690.417541503906	1.074987778793E-007
690.700317382813	1.0830838448328E-007
690.983032226563	1.07504746438281E-007
691.265808105469	1.07644837044063E-007
691.548522949219	1.08414909050225E-007
691.831298828125	1.07659282377881E-007
692.114013671875	1.05271844574872E-007
692.396789550781	1.06677930489241E-007
692.679504394531	1.05406286365906E-007
692.962280273437	1.03565980680287E-007
693.245056152344	1.01955642151097E-007
693.527770996094	1.02164683823958E-007
693.810546875	1.0123457627742E-007
694.09326171875	1.01961049381316E-007
694.376037597656	1.02053633099786E-007
694.658752441406	1.02715929983788E-007
694.941528320312	1.02635212329005E-007
695.224243164062	1.01476260283562E-007
695.507019042969	1.00749375064879E-007
695.789733886719	1.0077252454721E-007
696.072509765625	1.00805145564209E-007
696.355224609375	9.99997737949343E-008
696.638000488281	9.92850957004521E-008
696.917297363281	1.00219502030541E-007
697.196533203125	9.97364040244975E-008
697.475830078125	9.8648825996861E-008
697.755126953125	9.84248984536862E-008
698.034423828125	9.89646764537611E-008
698.313659667969	9.79826069169576E-008
698.592956542969	9.83017045541601E-008
698.872253417969	9.85254615670783E-008
699.151550292969	9.97019071746763E-008
699.430786132813	9.89929205275075E-008
699.710083007812	9.95520679225592E-008
699.989379882813	9.82222303491653E-008
700.268615722656	9.8358192701653E-008
700.547912597656	9.69541602557911E-008
700.827209472656	9.64503499290004E-008
701.106506347656	9.35228925413867E-008
701.3857421875	9.28126624444303E-008
701.6650390625	9.26981371662805E-008
701.9443359375	9.26723942029639E-008
702.223571777344	9.26824910152391E-008
702.502868652344	9.36670190299083E-008
702.782165527344	9.49584517684343E-008
703.061462402344	9.40599917953477E-008
703.340698242188	9.43442159950791E-008
703.619995117187	9.35111046374004E-008
703.899291992188	9.36621873393051E-008
704.178588867187	9.30565207113432E-008
704.457824707031	9.30568120338648E-008
704.737121582031	9.32574337753067E-008
705.016418457031	9.34239849925689E-008
705.295654296875	9.28891523699349E-008
705.574951171875	9.22580341011781E-008
705.854248046875	8.93884433139647E-008
706.133544921875	8.89665514591798E-008
706.412780761719	8.8977643031285E-008
706.692077636719	8.88803199927679E-008
706.971374511719	8.86396236410292E-008
707.250610351562	9.12192703594883E-008
707.529907226563	9.19720903880261E-008
707.809204101562	9.1887642383881E-008
708.088500976563	9.11018815941134E-008
708.367736816406	9.15606293006022E-008
708.647033691406	9.15126321388016E-008
708.926330566406	8.99705199230993E-008
709.205627441406	8.90498981220844E-008
709.48486328125	8.899647951921E-008
709.76416015625	8.84673880818809E-008
710.04345703125	8.73624230735004E-008
710.322692871094	8.69914700274421E-008
710.601989746094	8.62606839291402E-008
710.881286621094	8.57648672081268E-008
711.160583496094	8.36999021203155E-008
711.439819335938	8.36182607599767E-008
711.719116210937	8.25853518904296E-008
711.998413085938	8.26887074367733E-008
712.277709960937	8.14327592024711E-008
712.556945800781	8.24028134616128E-008
712.836242675781	8.17935656982627E-008
713.115539550781	8.2853759408863E-008
713.394775390625	8.2118560840172E-008
713.674072265625	8.2458790018336E-008
713.953369140625	8.15099738815661E-008
714.232666015625	8.07511781886205E-008
714.511901855469	7.93151784250767E-008
714.791198730469	7.96580934547819E-008
715.070495605469	8.0711387795418E-008
715.349731445313	8.08903024562824E-008
715.629028320312	8.10784896998484E-008
715.908325195313	7.93763490491983E-008
716.187622070312	7.96481174347719E-008
716.466857910156	7.81771092306371E-008
716.746154785156	7.83091920197876E-008
717.025451660156	7.78456978878239E-008
717.304748535156	7.84311922075176E-008
717.583984375	7.70567822883095E-008
717.86328125	7.73299646539272E-008
718.142578125	7.66958265785433E-008
718.421813964844	7.57786011718054E-008
718.701110839844	7.74286803562063E-008
718.980407714844	7.78902347065014E-008
719.259704589844	7.73334818404692E-008
719.538940429688	7.83500624379485E-008
719.818237304687	7.87478100505723E-008
720.097534179688	7.71912880281889E-008
720.376770019531	7.67407897228622E-008
720.656066894531	7.74838255779287E-008
720.935363769531	7.59998144417295E-008
721.214660644531	7.6088959133358E-008
721.493896484375	7.60595995075164E-008
721.773193359375	7.73560628886116E-008
722.052490234375	7.64667120733975E-008
722.331787109375	7.7923111518885E-008
722.611022949219	7.898955800556E-008
722.890319824219	7.86802942798204E-008
723.169616699219	7.73352581973086E-008
723.448852539063	7.6346431399088E-008
723.728149414062	7.53222550997634E-008
724.007446289063	7.4588776044493E-008
724.286743164062	7.46123802741749E-008
724.565979003906	7.31877989323948E-008
724.845275878906	7.33331759761313E-008
725.124572753906	7.34992369189058E-008
725.403869628906	7.21789064073164E-008
725.68310546875	7.14774657240014E-008
725.96240234375	7.20013346722226E-008
726.24169921875	7.23307351790936E-008
726.520935058594	7.1209356633517E-008
726.800231933594	7.10591834263141E-008
727.079528808594	7.15109607085651E-008
727.358825683594	7.13995902401621E-008
727.638061523437	7.17686816642527E-008
727.917358398438	7.03036704408078E-008
728.196655273437	6.95382382787102E-008
728.475891113281	6.87779859731563E-008
728.755187988281	6.79649048151987E-008
729.034484863281	6.70828086413167E-008
729.313781738281	6.67451729441382E-008
729.593017578125	6.82115768313452E-008
729.872314453125	6.80000837860462E-008
730.151611328125	6.80100029626374E-008
730.430908203125	6.53510596748674E-008
730.710144042969	6.51935749829136E-008
730.989440917969	6.34083292538889E-008
731.268737792969	6.29889029823971E-008
731.547973632813	6.30959888781035E-008
731.827270507812	6.49915250505728E-008
732.106567382813	6.49563531851527E-008
732.385864257812	6.46899920297983E-008
732.665100097656	6.41028847780945E-008
732.944396972656	6.33088603763099E-008
733.223693847656	6.25988008096101E-008
733.5029296875	6.25785929742051E-008
733.7822265625	6.41660307110215E-008
734.0615234375	6.43597175553623E-008
734.3408203125	6.33753813872318E-008
734.620056152344	6.35371293356002E-008
734.899353027344	6.45600835014193E-008
735.178649902344	6.23440854496948E-008
735.457946777344	6.18712121536191E-008
735.737182617187	6.2248695087419E-008
736.016479492188	6.21102600462109E-008
736.295776367187	6.05559122845989E-008
736.575012207031	6.24183797981459E-008
736.854309082031	6.06194916485947E-008
737.133605957031	6.18016287035061E-008
737.412902832031	6.13235044966132E-008
737.692138671875	6.23060003590581E-008
737.971435546875	6.09299064535662E-008
738.250732421875	6.31453289656747E-008
738.530029296875	6.1670704099015E-008
738.806640625	6.04308922902419E-008
739.083251953125	5.93409339444406E-008
739.359924316406	5.8434157068632E-008
739.636535644531	5.77484122743499E-008
739.913146972656	5.73144696147665E-008
740.189819335938	5.80361003699181E-008
740.466430664062	5.70725333659539E-008
740.743041992188	5.78582941557215E-008
741.019714355469	5.62972530815387E-008
741.296325683594	5.66327962303603E-008
741.572937011719	5.68300997372262E-008
741.849609375	5.74358836047395E-008
742.126220703125	5.6142464899267E-008
742.402893066406	5.69357894164568E-008
742.679504394531	5.67403297679903E-008
742.956115722656	5.52122187968962E-008
743.232788085938	5.59717427961459E-008
743.509399414062	5.67855096278436E-008
743.786010742188	5.69984699438919E-008
744.062683105469	5.75054350804294E-008
744.339294433594	6.04627530265134E-008
744.615905761719	5.97773350818898E-008
744.892578125	5.99577347770719E-008
745.169189453125	5.99422094182955E-008
745.445861816406	5.86775925626171E-008
745.722473144531	5.45218235004086E-008
745.999084472656	5.3632742691434E-008
746.275756835938	5.13414235570053E-008
746.552368164062	5.28476782335474E-008
746.828979492188	5.28979846592392E-008
747.105651855469	5.60225359436117E-008
747.382263183594	5.60974875440934E-008
747.658874511719	5.92835931456648E-008
747.935546875	5.60656800985271E-008
748.212158203125	5.44126557144864E-008
748.48876953125	5.14988514055403E-008
748.765441894531	5.27272980832549E-008
749.042053222656	4.95677241474368E-008
749.318725585938	4.98289942640895E-008
749.595336914062	4.99056334035686E-008
749.871948242188	5.2668564620717E-008
750.148620605469	5.02846830841008E-008
750.425231933594	5.07364994462023E-008
750.701843261719	5.18752045763904E-008
750.978515625	5.21323677560304E-008
751.255126953125	4.98793859549096E-008
751.53173828125	4.9277144142934E-008
751.808410644531	4.81615387570855E-008
752.085021972656	4.66723157899196E-008
752.361694335938	4.8061654212006E-008
752.638305664062	4.81644768512979E-008
752.914916992188	4.97769931939729E-008
753.191589355469	4.93911542776004E-008
753.468200683594	5.09705166962249E-008
753.744812011719	5.10414892573863E-008
754.021484375	5.03359451897722E-008
754.298095703125	4.95667222821794E-008
754.57470703125	5.05145401064055E-008
754.851379394531	4.84348170459725E-008
755.127990722656	4.69168490724314E-008
755.404663085938	4.87051323716514E-008
755.681274414062	4.8065736280023E-008
755.957885742188	4.82369770793412E-008
756.234558105469	4.67284131389079E-008
756.511169433594	4.6019593469282E-008
756.787780761719	4.49451853512528E-008
757.064453125	4.56512090352135E-008
757.341064453125	4.52124879757321E-008
757.61767578125	4.58424871396801E-008
757.894348144531	4.73943657652853E-008
758.170959472656	4.68538345899105E-008
758.447570800781	4.58851303619667E-008
758.724243164062	4.65869831600685E-008
759.000854492188	4.88478164584194E-008
759.277526855469	4.85914277703614E-008
759.554138183594	4.75557548895722E-008
759.830749511719	4.76036419172487E-008
760.107421875	4.70708769739758E-008
760.384033203125	4.50704362719989E-008
760.66064453125	4.4215514805046E-008
760.937316894531	4.38021956483681E-008
761.213928222656	4.33787441522782E-008
761.490539550781	4.20186836436187E-008
761.767211914062	4.28037800759284E-008
762.043823242188	4.15864782610242E-008
762.320495605469	4.14069596388345E-008
762.597106933594	4.0791576338961E-008
762.873718261719	3.90870376065777E-008
763.150390625	3.77166990972455E-008
763.427001953125	3.7827224019793E-008
763.6865234375	3.97629555948242E-008
763.945983886719	4.18108889732594E-008
764.205505371094	4.46643468876573E-008
764.465026855469	4.62835565429032E-008
764.724548339844	4.69681893378038E-008
764.984008789063	4.66680241117956E-008
765.243530273437	4.62653808597224E-008
765.503051757812	4.52765078762241E-008
765.762512207031	4.6197229153222E-008
766.022033691406	4.61775222504457E-008
766.281555175781	4.59816718034745E-008
766.541076660156	4.60944384883533E-008
766.800537109375	4.58609221709594E-008
767.06005859375	4.28153690279487E-008
767.319580078125	4.19309778010302E-008
767.579040527344	3.99846911136592E-008
767.838562011719	3.67712829074662E-008
768.098083496094	3.86688725484419E-008
768.357604980469	4.01987207965249E-008
768.617065429688	3.96198593932695E-008
768.876586914062	3.91164398649835E-008
769.136108398438	3.90353598334059E-008
769.395629882813	3.8765620047343E-008
769.655090332031	3.78626481278843E-008
769.914611816406	3.80721338899548E-008
770.174133300781	4.07368823118759E-008
770.43359375	4.17571790478632E-008
770.693115234375	4.15916829865637E-008
770.95263671875	4.2209876482957E-008
771.212158203125	4.53545716538883E-008
771.471618652344	4.45202559262725E-008
771.731140136719	4.4836820478622E-008
771.990661621094	4.10206837386795E-008
772.250122070312	3.96291959248174E-008
772.509643554687	3.70105794900155E-008
772.769165039063	3.67998040928796E-008
773.028686523437	3.57784877280665E-008
773.288146972656	3.76712030458748E-008
773.547668457031	3.77249236294119E-008
773.807189941406	3.81343667754663E-008
774.066650390625	3.90065366673298E-008
774.326171875	3.99673751871887E-008
774.585693359375	3.85395573232472E-008
774.84521484375	3.78785465215969E-008
775.104675292969	3.72635078349504E-008
775.364196777344	3.70489736667423E-008
775.623718261719	3.79484426105137E-008
775.883178710937	4.05103470768609E-008
776.142700195313	4.28431938814811E-008
776.402221679688	4.28217852288526E-008
776.661743164062	3.89556369384536E-008
776.921203613281	3.80446500969356E-008
777.180725097656	3.77761715242286E-008
777.440246582031	3.70363260060458E-008
777.699768066406	3.69598751603917E-008
777.959228515625	3.79392979255044E-008
778.21875	3.57527021321857E-008
778.478271484375	3.38283143719309E-008
778.737731933594	3.16981534353999E-008
778.997253417969	3.16381871812155E-008
779.256774902344	3.15840509301779E-008
779.516296386719	3.30145688565153E-008
779.775756835938	3.11734176250411E-008
780.035278320312	3.14803862977442E-008
780.294799804687	3.05355030150167E-008
780.554260253906	3.14875947537985E-008
780.813781738281	3.07763983187215E-008
781.073303222656	3.35021042019434E-008
781.332824707031	3.24433742093788E-008
781.59228515625	3.18842587887502E-008
781.851806640625	3.20813633436501E-008
782.111328125	3.08860919062681E-008
782.370788574219	3.38805676847187E-008
782.630310058594	3.48955389029015E-008
782.889831542969	3.55556721842731E-008
783.149353027344	3.4906694423853E-008
783.408813476563	3.71812056698673E-008
783.668334960937	3.51810705012667E-008
783.927856445313	3.37436460995377E-008
784.187377929688	3.43722312834416E-008
784.446838378906	3.54500997445939E-008
784.706359863281	3.34433281068414E-008
784.965881347656	2.95558386653738E-008
785.225341796875	3.0504143211374E-008
785.48486328125	2.72882036966848E-008
785.744384765625	2.64447930220513E-008
786.00390625	2.69899516069927E-008
786.263366699219	2.48102303146425E-008
786.522888183594	2.41634605657737E-008
786.782409667969	2.53399434768653E-008
787.041870117187	2.54396521626177E-008
787.301391601562	2.68337121411832E-008
787.560913085938	3.29901439499736E-008
787.820434570312	3.38804504451673E-008
788.079895019531	3.55679468100334E-008
788.339416503906	3.56773703913404E-008
788.598937988281	3.25356062091942E-008
788.8583984375	3.08518544045455E-008
789.117919921875	2.92818551628216E-008
789.37744140625	2.82834680120914E-008
789.636962890625	2.86425319018235E-008
789.896423339844	3.22893107806976E-008
790.155944824219	3.04838501108406E-008
790.415466308594	3.15481791801631E-008
790.674926757812	3.33939631502744E-008
790.934448242188	3.02866602908125E-008
791.193969726563	2.89737602798823E-008
791.453491210937	2.89731243441338E-008
791.712951660156	3.04922380678363E-008
791.972473144531	2.73302589448576E-008
792.231994628906	2.96007378608465E-008
792.491516113281	2.86910228908255E-008
792.7509765625	2.79458394203402E-008
793.010498046875	2.46150619886976E-008
793.27001953125	2.52100011977063E-008
793.529479980469	2.17116831180419E-008
793.789001464844	2.21645297671103E-008
794.048522949219	2.29788668093533E-008
794.308044433594	2.41354491947732E-008
794.567504882813	2.24344969268486E-008
794.827026367187	2.42608795275601E-008
795.086547851562	2.10461852390154E-008
795.346008300781	2.10186517080047E-008
795.605529785156	2.29847927357696E-008
795.865051269531	2.57987498031298E-008
796.124572753906	2.85436918545656E-008
796.384033203125	3.10113996704331E-008
796.6435546875	2.83052354888014E-008
796.903076171875	2.83331562656031E-008
797.162536621094	2.64931490079334E-008
797.422058105469	2.82318008970606E-008
797.681579589844	2.90494099886018E-008
797.941101074219	3.24423261588436E-008
798.200561523437	3.24675148988263E-008
798.460083007812	3.17457171661317E-008
798.719604492188	2.59108734468327E-008
798.979125976563	2.79014429338531E-008
799.238586425781	2.36604655867723E-008
799.498107910156	1.76394348017084E-008
799.757629394531	1.97426075487783E-008
800.01708984375	1.83391968278102E-008
800.276611328125	1.54797969997844E-008
800.5361328125	1.96558733733809E-008
800.795654296875	2.42553852558558E-008
801.055114746094	2.15750777243784E-008
801.314636230469	2.50307703453245E-008
801.574157714844	2.34608030780237E-008
801.833618164062	2.28885408404267E-008
802.093139648438	2.1241710612685E-008
802.352661132813	2.14145252641629E-008
802.612182617187	2.21483027473823E-008
802.871643066406	2.13029931472875E-008
803.131164550781	2.21800391386751E-008
803.390686035156	2.33453434361763E-008
803.650146484375	2.43924862530775E-008
803.90966796875	2.21140528111619E-008
804.169189453125	2.47108786766148E-008
804.4287109375	2.25574510182014E-008
804.688171386719	1.87349904479106E-008
804.947692871094	1.74561751720148E-008
805.207214355469	1.73980456708023E-008
805.466674804687	1.66842379911714E-008
805.726196289063	1.91745428423928E-008
805.985717773437	2.31618830781599E-008
806.245239257812	2.49715643718673E-008
806.504699707031	2.34786021735545E-008
806.764221191406	2.63473634021238E-008
807.023742675781	2.52836080960606E-008
807.283264160156	2.84886922941041E-008
807.542724609375	2.96834841151394E-008
807.80224609375	3.55028539900104E-008
808.061767578125	3.61531924397696E-008
808.321228027344	3.46392603489676E-008
808.580749511719	2.64209756295486E-008
808.840270996094	2.54013396983055E-008
809.099792480469	1.98617620128516E-008
809.359252929688	1.73033534167644E-008
809.618774414062	1.36998394850707E-008
809.878295898438	1.63746811665533E-008
810.137756347656	1.50256376230118E-008
810.397277832031	1.31788926438503E-008
810.656799316406	1.13958513736634E-008
810.916320800781	1.43564431454024E-008
811.17578125	1.57313859716623E-008
811.435302734375	1.51701957662453E-008
811.69482421875	1.78044228249519E-008
811.954284667969	1.72369354345392E-008
812.213806152344	1.66522635680622E-008
812.473327636719	1.4140729476253E-008
812.732849121094	1.79589498827681E-008
812.992309570312	1.97183300798542E-008
813.251831054687	1.9393976202764E-008
813.511352539063	2.18762874482081E-008
813.770812988281	2.42214426293685E-008
814.030334472656	2.01459346982347E-008
814.289855957031	1.70568039692398E-008
814.549377441406	1.57528283750707E-008
814.808837890625	1.1392587317971E-008
815.068359375	9.00470720210933E-009
815.327880859375	6.67518396113564E-009
815.58740234375	1.11309281791705E-008
815.846862792969	1.20738397058062E-008
816.106384277344	1.30323307701019E-008
816.365905761719	1.37221798368614E-008
816.625366210937	1.32544784037236E-008
816.884887695313	8.78628902967193E-009
817.144409179688	9.01587071666654E-009
817.403930664062	1.18993543907209E-008
817.663391113281	1.66496683107198E-008
817.922912597656	2.07095087745302E-008
818.182434082031	1.84005131131926E-008
818.44189453125	2.09284607421978E-008
818.701416015625	1.79248313969538E-008
818.9609375	1.59408077848866E-008
819.220458984375	1.92522833231124E-008
819.479919433594	1.83930737307492E-008
819.739440917969	1.28395925003133E-008
819.998962402344	1.43597747026547E-008
820.258422851562	1.41478464499301E-008
820.517944335938	1.16842473474321E-008
820.777465820312	1.50764787321123E-008
821.036987304687	1.58397366334384E-008
821.296447753906	1.49269911986494E-008
821.555969238281	1.55078812014153E-008
821.815490722656	1.60041739860617E-008
822.075012207031	1.73151359916801E-008
822.33447265625	2.19962750236391E-008
822.593994140625	2.13232702606092E-008
822.853515625	1.83683788179678E-008
823.112976074219	2.34080328453956E-008
823.372497558594	2.39397657253448E-008
823.632019042969	2.31011565432482E-008
823.891540527344	2.52999967642609E-008
824.151000976563	2.10922213028653E-008
824.410522460937	1.48657974818889E-008
824.670043945313	8.04064015369477E-009
824.929504394531	8.50077874758881E-009
825.189025878906	7.14506409593696E-009
825.448547363281	1.52172905387715E-008
825.708068847656	1.95940028646646E-008
825.967529296875	2.0774669096113E-008
826.22705078125	2.07731751800111E-008
826.486572265625	1.94667091335532E-008
826.746032714844	1.90421047818745E-008
827.005554199219	1.56141322094072E-008
827.265075683594	2.21850200432527E-008
827.524597167969	2.51305873888441E-008
827.784057617187	2.84350960555457E-008
828.043579101562	2.65454360715012E-008
828.303100585938	2.86280492645119E-008
828.562561035156	3.2328639321122E-008
828.822082519531	3.2520134141123E-008
829.081604003906	2.90987554052435E-008
829.341125488281	3.56674583201766E-008
829.6005859375	3.03366505249869E-008
829.860107421875	2.54243204267368E-008
830.11962890625	1.92519529207402E-008
830.379150390625	2.1688775220241E-008
830.638610839844	1.28442660951578E-008
830.898132324219	1.34856259492722E-008
831.157653808594	1.60475899235735E-008
831.417114257812	1.76660588380173E-008
831.676635742188	2.07431067877906E-008
831.936157226563	2.17844302596859E-008
832.195678710937	2.25902141437473E-008
832.455139160156	1.2919692871094E-008
832.714660644531	1.10086340043836E-008
832.974182128906	1.46079095486584E-008
833.233642578125	1.84793922386461E-008
833.4931640625	1.58258757210206E-008

