LED3_2,,LED3_3,,LED3_4,,LED3_5,,LED3_6,,LED3_7,,LED3_8,,LED3_9,,LED3_10,,LED3_11,,
Wavelength (nm),Intensity (a.u.),Wavelength (nm),Intensity (a.u.),Wavelength (nm),Intensity (a.u.),Wavelength (nm),Intensity (a.u.),Wavelength (nm),Intensity (a.u.),Wavelength (nm),Intensity (a.u.),Wavelength (nm),Intensity (a.u.),Wavelength (nm),Intensity (a.u.),Wavelength (nm),Intensity (a.u.),Wavelength (nm),Intensity (a.u.),
200,0.1017345712,200,0.2034691423,200,0.2034691423,200,0.3052037358,200,15.56538963,200,4.67979002,200,0.2034691423,200,0.2543364167,200,0.3560710251,200,0.6104074717,
200.9299927,0.05086728558,200.9299927,0.05086728558,200.9299927,0.2034691423,200.9299927,0.3560710251,200.9299927,13.98850441,200.9299927,5.035861492,200.9299927,0.2034691423,200.9299927,0.3560710251,200.9299927,0.3560710251,200.9299927,0.5595401525,
202.0299988,0.05086728558,202.0299988,0.1017345712,202.0299988,0.1526018679,202.0299988,0.6612747312,202.0299988,14.54804325,202.0299988,4.984993935,202.0299988,0.1526018679,202.0299988,0.2034691423,202.0299988,0.3560710251,202.0299988,0.4069382846,
202.9600067,0.1526018679,202.9600067,0.2034691423,202.9600067,0.05086728558,202.9600067,0.5086728334,202.9600067,14.14110565,202.9600067,5.188463211,202.9600067,0.2543364167,202.9600067,0.3560710251,202.9600067,0.3052037358,202.9600067,0.5595401525,
204.0599976,0.1017345712,204.0599976,0.2034691423,204.0599976,0.2034691423,204.0599976,0.3052037358,204.0599976,14.34457493,204.0599976,4.67979002,204.0599976,0.2543364167,204.0599976,0.3052037358,204.0599976,0.4578055739,204.0599976,0.7121420503,
205,0.1017345712,205,0.1526018679,205,0.2034691423,205,0.4578055739,205,15.00584888,205,4.730657578,205,0.2543364167,205,0.3560710251,205,0.4069382846,205,0.9156111479,
205.9299927,0.1017345712,205.9299927,0.1526018679,205.9299927,0.2034691423,205.9299927,0.4069382846,205.9299927,15.31105328,205.9299927,5.08672905,205.9299927,0.2543364167,205.9299927,0.2543364167,205.9299927,0.4069382846,205.9299927,0.6104074717,
207.0299988,0.1017345712,207.0299988,0.1017345712,207.0299988,0.2034691423,207.0299988,0.5086728334,207.0299988,15.46365452,207.0299988,4.628923416,207.0299988,0.3052037358,207.0299988,0.2034691423,207.0299988,0.3052037358,207.0299988,0.6104074717,
207.9600067,0.1526018679,207.9600067,0.05086728558,207.9600067,0.2034691423,207.9600067,0.3052037358,207.9600067,15.76885986,207.9600067,5.239330769,207.9600067,0.3052037358,207.9600067,0.2543364167,207.9600067,0.3560710251,207.9600067,0.7630093098,
209.0599976,0.1017345712,209.0599976,0.1526018679,209.0599976,0.3052037358,209.0599976,0.3560710251,209.0599976,15.56538963,209.0599976,4.883259773,209.0599976,0.3052037358,209.0599976,0.3052037358,209.0599976,0.6104074717,209.0599976,0.6104074717,
210,0.1526018679,210,0.3052037358,210,0.1526018679,210,0.5086728334,210,16.12492943,210,4.628923416,210,0.2543364167,210,0.3052037358,210,0.2543364167,210,0.5595401525,
210.9299927,0.05086728558,210.9299927,0.1017345712,210.9299927,0.2543364167,210.9299927,0.5595401525,210.9299927,16.37926674,210.9299927,4.883259773,210.9299927,0.2543364167,210.9299927,0.2543364167,210.9299927,0.3560710251,210.9299927,0.6612747312,
212.0299988,0.05086728558,212.0299988,0.3052037358,212.0299988,0.2543364167,212.0299988,0.7121420503,212.0299988,15.87059307,212.0299988,4.984993935,212.0299988,0.2543364167,212.0299988,0.5595401525,212.0299988,0.4578055739,212.0299988,0.6104074717,
212.9600067,0.1526018679,212.9600067,0.1017345712,212.9600067,0.1526018679,212.9600067,0.4069382846,212.9600067,15.97232723,212.9600067,4.883259773,212.9600067,0,212.9600067,0.2543364167,212.9600067,0.3560710251,212.9600067,0.5595401525,
214.0599976,0.1017345712,214.0599976,0.1017345712,214.0599976,0.3052037358,214.0599976,0.4578055739,214.0599976,15.92146015,214.0599976,5.442799568,214.0599976,0.2034691423,214.0599976,0.2543364167,214.0599976,0.3560710251,214.0599976,0.5595401525,
215,0.1017345712,215,0.1526018679,215,0.1017345712,215,0.4578055739,215,15.71799278,215,5.34106493,215,0.2034691423,215,0.2543364167,215,0.4578055739,215,0.7630093098,
215.9299927,0.05086728558,215.9299927,0.1526018679,215.9299927,0.2034691423,215.9299927,0.4578055739,215.9299927,16.73533821,215.9299927,4.883259773,215.9299927,0.2034691423,215.9299927,0.3052037358,215.9299927,0.4578055739,215.9299927,0.6104074717,
217.0299988,0.1017345712,217.0299988,0.1017345712,217.0299988,0.3052037358,217.0299988,0.4578055739,217.0299988,16.17579651,217.0299988,5.239330769,217.0299988,0.2543364167,217.0299988,0.3052037358,217.0299988,0.3560710251,217.0299988,0.6612747312,
217.9600067,0.1017345712,217.9600067,0.1526018679,217.9600067,0.1526018679,217.9600067,0.3560710251,217.9600067,15.36192131,217.9600067,5.035861492,217.9600067,0.3052037358,217.9600067,0.3560710251,217.9600067,0.4578055739,217.9600067,0.7630093098,
219.0599976,0.1017345712,219.0599976,0.05086728558,219.0599976,0.1526018679,219.0599976,0.3052037358,219.0599976,17.19314194,219.0599976,5.34106493,219.0599976,0.4069382846,219.0599976,0.2543364167,219.0599976,0.4578055739,219.0599976,0.6612747312,
220,0.1017345712,220,0.2034691423,220,0.2543364167,220,0.5595401525,220,16.22666359,220,5.748003483,220,0.3052037358,220,0.3052037358,220,0.2543364167,220,0.7121420503,
220.9299927,0.05086728558,220.9299927,0.05086728558,220.9299927,0.1526018679,220.9299927,0.4069382846,220.9299927,17.19314194,220.9299927,5.442799568,220.9299927,0.3052037358,220.9299927,0.3560710251,220.9299927,0.6104074717,220.9299927,0.6612747312,
222.0299988,0.1017345712,222.0299988,0.2034691423,222.0299988,0.2543364167,222.0299988,0.4069382846,222.0299988,16.93880653,222.0299988,5.544534206,222.0299988,0.2034691423,222.0299988,0.2034691423,222.0299988,0.5086728334,222.0299988,0.6104074717,
222.9600067,0.1017345712,222.9600067,0.2034691423,222.9600067,0.2543364167,222.9600067,0.5086728334,222.9600067,16.93880653,222.9600067,5.239330769,222.9600067,0.2034691423,222.9600067,0.3560710251,222.9600067,0.7630093098,222.9600067,0.5086728334,
224.0599976,0.1017345712,224.0599976,0.2034691423,224.0599976,0.2543364167,224.0599976,0.5086728334,224.0599976,17.34574509,224.0599976,5.748003483,224.0599976,0.2543364167,224.0599976,0.3052037358,224.0599976,0.3052037358,224.0599976,0.5595401525,
225,0.2034691423,225,0.2543364167,225,0.4069382846,225,0.4578055739,225,17.09140778,225,5.798870564,225,0.2034691423,225,0.4578055739,225,0.3052037358,225,0.6104074717,
225.9299927,0.1017345712,225.9299927,0.1017345712,225.9299927,0.2034691423,225.9299927,0.3052037358,225.9299927,16.83707237,225.9299927,5.442799568,225.9299927,0.3052037358,225.9299927,0.3560710251,225.9299927,0.3052037358,225.9299927,0.5595401525,
227.0299988,0.1526018679,227.0299988,0.2543364167,227.0299988,0.2034691423,227.0299988,0.3560710251,227.0299988,16.73533821,227.0299988,5.951472759,227.0299988,0.2543364167,227.0299988,0.3052037358,227.0299988,0.4578055739,227.0299988,0.6612747312,
227.9600067,0.05086728558,227.9600067,0.1526018679,227.9600067,0.2034691423,227.9600067,0.5086728334,227.9600067,16.37926674,227.9600067,6.104074478,227.9600067,0.3560710251,227.9600067,0.2034691423,227.9600067,0.5595401525,227.9600067,0.4069382846,
229.0599976,0.1526018679,229.0599976,0.1017345712,229.0599976,0.3052037358,229.0599976,0.5086728334,229.0599976,17.34574509,229.0599976,5.748003483,229.0599976,0.2543364167,229.0599976,0.3560710251,229.0599976,0.3052037358,229.0599976,0.7630093098,
230,0.2034691423,230,0.2034691423,230,0.2543364167,230,0.5595401525,230,17.90528488,230,6.00233984,230,0.2034691423,230,0.4069382846,230,0.4578055739,230,0.6612747312,
230.9299927,0.1526018679,230.9299927,0.2034691423,230.9299927,0.1526018679,230.9299927,0.4578055739,230.9299927,17.70181656,230.9299927,5.951472759,230.9299927,0.3052037358,230.9299927,0.3052037358,230.9299927,0.3052037358,230.9299927,0.6104074717,
232.0299988,0.1017345712,232.0299988,0.2034691423,232.0299988,0.3052037358,232.0299988,0.5086728334,232.0299988,17.70181656,232.0299988,6.154942036,232.0299988,0.3560710251,232.0299988,0.3052037358,232.0299988,0.3560710251,232.0299988,0.6612747312,
232.9600067,0.1017345712,232.9600067,0.2034691423,232.9600067,0.1526018679,232.9600067,0.4578055739,232.9600067,19.02436447,232.9600067,6.714481831,232.9600067,0.3052037358,232.9600067,0.2543364167,232.9600067,0.4578055739,232.9600067,0.6612747312,
234.0599976,0.1017345712,234.0599976,0.1526018679,234.0599976,0.2034691423,234.0599976,0.6104074717,234.0599976,18.82089615,234.0599976,6.20580864,234.0599976,0.2034691423,234.0599976,0.2034691423,234.0599976,0.5086728334,234.0599976,0.5086728334,
235,0.1017345712,235,0.2034691423,235,0.3560710251,235,0.5086728334,235,19.73650742,235,6.714481831,235,0.2543364167,235,0.3560710251,235,0.4578055739,235,0.7630093098,
235.9299927,0,235.9299927,0.1526018679,235.9299927,0.2034691423,235.9299927,0.6104074717,235.9299927,19.43130493,235.9299927,6.256676197,235.9299927,0.2034691423,235.9299927,0.3560710251,235.9299927,0.3052037358,235.9299927,0.6612747312,
237.0299988,0.05086728558,237.0299988,0.2034691423,237.0299988,0.3560710251,237.0299988,0.5086728334,237.0299988,19.32956886,237.0299988,7.426623821,237.0299988,0.2034691423,237.0299988,0.3560710251,237.0299988,0.5086728334,237.0299988,0.6104074717,
237.9600067,0.1017345712,237.9600067,0.2543364167,237.9600067,0.2543364167,237.9600067,0.5086728334,237.9600067,18.56656075,237.9600067,7.172287464,237.9600067,0.4069382846,237.9600067,0.3560710251,237.9600067,0.4578055739,237.9600067,0.8138765693,
239.0599976,0.05086728558,239.0599976,0.1526018679,239.0599976,0.2034691423,239.0599976,0.5595401525,239.0599976,19.63477135,239.0599976,7.172287464,239.0599976,0.2543364167,239.0599976,0.4578055739,239.0599976,0.4069382846,239.0599976,0.6104074717,
240,0.1017345712,240,0.1526018679,240,0.3560710251,240,0.5086728334,240,19.99084473,240,6.511012554,240,0.2543364167,240,0.2543364167,240,0.4578055739,240,0.7121420503,
240.9299927,0.1017345712,240.9299927,0.2034691423,240.9299927,0.3052037358,240.9299927,0.6104074717,240.9299927,21.10992432,240.9299927,6.612747669,240.9299927,0.3560710251,240.9299927,0.4578055739,240.9299927,0.3052037358,240.9299927,0.8647438884,
242.0299988,0.1526018679,242.0299988,0.1017345712,242.0299988,0.3052037358,242.0299988,0.5086728334,242.0299988,22.78854561,242.0299988,6.917951107,242.0299988,0.3560710251,242.0299988,0.3560710251,242.0299988,0.4578055739,242.0299988,0.8647438884,
242.9600067,0.1017345712,242.9600067,0.2034691423,242.9600067,0.2543364167,242.9600067,0.4069382846,242.9600067,21.61859703,242.9600067,7.57922554,242.9600067,0.1017345712,242.9600067,0.3560710251,242.9600067,0.3560710251,242.9600067,0.5086728334,
244.0599976,0.2543364167,244.0599976,0.2034691423,244.0599976,0.1526018679,244.0599976,0.4578055739,244.0599976,22.27987099,244.0599976,7.019685745,244.0599976,0.3052037358,244.0599976,0.3560710251,244.0599976,0.4069382846,244.0599976,0.8647438884,
245,0.1017345712,245,0.05086728558,245,0.2543364167,245,0.7121420503,245,21.9746685,245,7.680960655,245,0.1526018679,245,0.4578055739,245,0.4069382846,245,0.9156111479,
245.9299927,0.05086728558,245.9299927,0.1526018679,245.9299927,0.3052037358,245.9299927,0.4578055739,245.9299927,22.38160515,245.9299927,6.917951107,245.9299927,0.3052037358,245.9299927,0.3052037358,245.9299927,0.4578055739,245.9299927,1.119080305,
247.0299988,0.1526018679,247.0299988,0.2543364167,247.0299988,0.3560710251,247.0299988,0.7121420503,247.0299988,23.24634933,247.0299988,7.477491379,247.0299988,0.2543364167,247.0299988,0.5595401525,247.0299988,0.5595401525,247.0299988,0.9156111479,
247.9600067,0.1017345712,247.9600067,0.3052037358,247.9600067,0.2543364167,247.9600067,0.7121420503,247.9600067,22.94114685,247.9600067,7.935296535,247.9600067,0.3560710251,247.9600067,0.3052037358,247.9600067,0.4578055739,247.9600067,0.9664784074,
249.0599976,0.05086728558,249.0599976,0.2034691423,249.0599976,0.3052037358,249.0599976,0.7121420503,249.0599976,22.73767853,249.0599976,7.630093098,249.0599976,0.4069382846,249.0599976,0.5086728334,249.0599976,0.2543364167,249.0599976,0.8647438884,
250,0.1017345712,250,0.1526018679,250,0.2034691423,250,0.6612747312,250,23.95849228,250,7.680960655,250,0.3052037358,250,0.5595401525,250,0.5595401525,250,0.6612747312,
250.9299927,0.05086728558,250.9299927,0.2034691423,250.9299927,0.2543364167,250.9299927,0.5086728334,250.9299927,24.77236748,250.9299927,8.24050045,250.9299927,0.3560710251,250.9299927,0.4578055739,250.9299927,0.6104074717,250.9299927,0.8138765693,
252.0299988,0.1526018679,252.0299988,0.2034691423,252.0299988,0.3560710251,252.0299988,0.4578055739,252.0299988,25.12843895,252.0299988,8.342235565,252.0299988,0.3560710251,252.0299988,0.5086728334,252.0299988,0.6104074717,252.0299988,0.6104074717,
252.9600067,0.1526018679,252.9600067,0.1017345712,252.9600067,0.3052037358,252.9600067,0.4578055739,252.9600067,25.94231606,252.9600067,8.393102646,252.9600067,0.3560710251,252.9600067,0.5086728334,252.9600067,0.6104074717,252.9600067,0.7630093098,
254.0599976,0.1017345712,254.0599976,0.1526018679,254.0599976,0.2543364167,254.0599976,0.6104074717,254.0599976,28.33307838,254.0599976,8.037031174,254.0599976,0.4578055739,254.0599976,0.5086728334,254.0599976,0.4578055739,254.0599976,1.068212986,
255,0.1017345712,255,0.2034691423,255,0.3560710251,255,0.6104074717,255,28.18047714,255,8.494836807,255,0.3560710251,255,0.6104074717,255,0.6104074717,255,0.8647438884,
255.9299927,0.1526018679,255.9299927,0.3052037358,255.9299927,0.3052037358,255.9299927,0.6104074717,255.9299927,27.06139755,255.9299927,9.003509521,255.9299927,0.4069382846,255.9299927,0.4578055739,255.9299927,0.4578055739,255.9299927,0.8138765693,
257.0299988,0.05086728558,257.0299988,0.2543364167,257.0299988,0.3560710251,257.0299988,0.7630093098,257.0299988,29.35042381,257.0299988,9.257846832,257.0299988,0.2034691423,257.0299988,0.4578055739,257.0299988,0.5595401525,257.0299988,1.017345667,
257.9599915,0.05086728558,257.9599915,0.3560710251,257.9599915,0.5086728334,257.9599915,0.8138765693,257.9599915,29.60476112,257.9599915,9.206978798,257.9599915,0.3560710251,257.9599915,0.5086728334,257.9599915,0.5086728334,257.9599915,0.5595401525,
259.0599976,0.2034691423,259.0599976,0.2543364167,259.0599976,0.4069382846,259.0599976,0.8138765693,259.0599976,37.13312149,259.0599976,10.12259007,259.0599976,0.3560710251,259.0599976,0.4578055739,259.0599976,0.5595401525,259.0599976,1.322549462,
260,0.05086728558,260,0.3052037358,260,0.3560710251,260,1.068212986,260,39.77821732,260,12.56421947,260,0.9156111479,260,0.5086728334,260,0.8647438884,260,1.220814943,
260.9299927,0.05086728558,260.9299927,0.2034691423,260.9299927,0.5595401525,260.9299927,1.576885939,260.9299927,51.9355011,260.9299927,15.2601862,260.9299927,0.8138765693,260.9299927,0.7121420503,260.9299927,1.322549462,260.9299927,1.729487777,
262.0299988,0.1017345712,262.0299988,0.4578055739,262.0299988,1.068212986,262.0299988,2.441629887,262.0299988,80.67552185,262.0299988,21.92380142,262.0299988,1.119080305,262.0299988,1.52601862,262.0299988,1.983824134,262.0299988,2.543364525,
262.9599915,0,262.9599915,0.7630093098,262.9599915,1.424284101,262.9599915,3.713311911,262.9599915,120.6063385,262.9599915,32.35159302,262.9599915,1.576885939,262.9599915,1.627753139,262.9599915,3.00116992,262.9599915,3.509842873,
264.0599976,0.1526018679,264.0599976,0.9156111479,264.0599976,2.187293291,264.0599976,5.391932487,264.0599976,190.3453979,264.0599976,52.64764404,264.0599976,2.746833563,264.0599976,3.10290432,264.0599976,3.713311911,264.0599976,5.442799568,
265,0.1017345712,265,1.373416781,265,2.594231606,265,7.986163616,265,272.8521118,265,75.89398956,265,3.255506277,265,4.730657578,265,5.798870564,265,7.782694817,
265.9299927,0.05086728558,265.9299927,1.780354977,265.9299927,4.120250225,265.9299927,11.69947624,265.9299927,379.9277649,265.9299927,110.1276779,265.9299927,5.08672905,265.9299927,6.409277916,265.9299927,8.850908279,265.9299927,10.47866154,
267.0299988,0.05086728558,267.0299988,3.408108234,267.0299988,7.121419907,267.0299988,19.12610054,267.0299988,644.2341919,267.0299988,177.4250946,267.0299988,9.512182236,267.0299988,10.73299694,267.0299988,14.34457493,267.0299988,18.21048927,
267.9599915,0.2034691423,267.9599915,4.934126854,267.9599915,11.64860821,267.9599915,30.16430092,267.9599915,1000,267.9599915,283.8394775,267.9599915,14.24283981,267.9599915,16.12492943,267.9599915,23.90762329,267.9599915,29.96083069,
269.0599976,0.1017345712,269.0599976,8.393102646,269.0599976,18.92263031,269.0599976,52.08810043,269.0599976,1000,269.0599976,466.5038757,269.0599976,24.36543083,269.0599976,28.63828278,269.0599976,37.6417923,269.0599976,48.42565536,
270,0.05086728558,270,13.32722855,270,28.07874298,270,74.21537781,270,1000,270,707.0044556,270,35.20016479,270,40.94816589,270,59.15865707,270,74.4697113,
271.0700073,0.1017345712,271.0700073,20.19431305,271.0700073,44.5088768,271.0700073,120.6063385,271.0700073,1000,271.0700073,1000,271.0700073,57.17483139,271.0700073,67.80609131,271.0700073,94.10448456,271.0700073,116.7404251,
272,0.05086728558,272,28.53654861,272,63.38063812,272,174.3730621,272,1000,272,1000,272,81.18419647,272,100.7680969,272,133.5774994,272,170.9649506,
273.0700073,0.05086728558,273.0700073,45.0684166,273.0700073,99.24207306,273.0700073,272.0891113,273.0700073,1000,273.0700073,1000,273.0700073,127.0664749,273.0700073,155.8065033,273.0700073,207.6911316,273.0700073,262.4751892,
274,0.1526018679,274,60.37947083,274,130.7289276,274,349.5599976,274,1000,274,1000,274,166.9464417,274,201.9431305,274,280.5330811,274,351.7981567,
275.0700073,0.1017345712,275.0700073,75.99572754,275.0700073,170.4562683,275.0700073,470.8276062,275.0700073,1000,275.0700073,1000,275.0700073,219.6449432,275.0700073,273.4625244,275.0700073,370.6699219,275.0700073,460.7558899,
276,0.1526018679,276,86.11831665,276,191.4644623,276,538.9389038,276,1000,276,1000,276,253.268219,276,308.7644348,276,415.2296753,276,529.4267578,
277.0700073,0.1526018679,277.0700073,97.2073822,277.0700073,211.5570526,277.0700073,600.7935181,277.0700073,1000,277.0700073,1000,277.0700073,279.7700806,277.0700073,344.9819336,277.0700073,469.098114,277.0700073,595.859436,
278,0.1526018679,278,97.97039795,278,222.1883087,278,608.7796631,278,1000,278,1000,278,289.1296692,278,353.9854736,278,481.4588623,278,609.0848999,
279.0700073,0.05086728558,279.0700073,91.51025391,279.0700073,209.5223541,279.0700073,574.9529419,279.0700073,1000,279.0700073,1000,279.0700073,271.3261108,279.0700073,330.8916931,279.0700073,454.8552856,279.0700073,575.4616089,
280,0.1526018679,280,84.08362579,280,185.6147308,280,513.3018188,280,1000,280,1000,280,247.2150116,280,301.0834656,280,413.7036438,280,519.100647,
280.9299927,0.05086728558,280.9299927,71.9263382,280.9299927,160.5371552,280.9299927,446.767395,280.9299927,1000,280.9299927,1000,280.9299927,213.7952118,280.9299927,263.9503479,280.9299927,359.2756348,280.9299927,461.8240967,
282.0299988,0.1526018679,282.0299988,57.37829971,282.0299988,130.2202454,282.0299988,370.4155884,282.0299988,1000,282.0299988,1000,282.0299988,175.5430145,282.0299988,214.3038788,282.0299988,291.7239075,282.0299988,370.0086365,
282.9599915,0.1017345712,282.9599915,46.18749619,282.9599915,104.0236053,282.9599915,291.978241,282.9599915,1000,282.9599915,1000,282.9599915,135.0526581,282.9599915,168.5741882,282.9599915,233.1247711,282.9599915,296.2002258,
284.0599976,0.1017345712,284.0599976,35.40363312,284.0599976,79.40383148,284.0599976,222.2391815,284.0599976,1000,284.0599976,1000,284.0599976,106.0074234,284.0599976,132.0514832,284.0599976,181.5453491,284.0599976,229.0045319,
285,0.05086728558,285,29.19782257,285,63.58411026,285,181.6979523,285,1000,285,1000,285,87.38999939,285,105.9565582,285,142.5301361,285,180.6297302,
285.9299927,0.1017345712,285.9299927,22.73767853,285.9299927,51.68116379,285.9299927,145.4295807,285.9299927,1000,285.9299927,1000,285.9299927,68.41649628,285.9299927,86.37265015,285.9299927,116.6386871,285.9299927,145.3278351,
287.0299988,0.1017345712,287.0299988,18.71916008,287.0299988,40.18515778,287.0299988,109.924202,287.0299988,1000,287.0299988,1000,287.0299988,53.41065216,287.0299988,65.77140045,287.0299988,90.03509521,287.0299988,113.5357819,
287.9599915,0.1526018679,287.9599915,13.98850441,287.9599915,31.79205513,287.9599915,86.72872162,287.9599915,1000,287.9599915,1000,287.9599915,42.52505493,287.9599915,49.79907227,287.9599915,69.48471069,287.9599915,86.67785645,
289.0599976,0.1526018679,289.0599976,10.83473206,289.0599976,24.51803207,289.0599976,68.0604248,289.0599976,1000,289.0599976,1000,289.0599976,32.50419617,289.0599976,38.30306625,289.0599976,54.52973175,289.0599976,68.82344055,
290,0.1526018679,290,8.749173164,290,18.87176323,290,54.17366028,290,1000,290,1000,290,26.04405022,290,32.65679932,290,44.81407928,290,56.86962509,
291.0700073,0,291.0700073,7.019685745,291.0700073,15.56538963,291.0700073,43.33892822,291.0700073,1000,291.0700073,795.2591553,291.0700073,20.80471992,291.0700073,25.02670479,291.0700073,33.21633911,291.0700073,45.27188492,
292,0.1017345712,292,5.493667126,292,13.93763638,292,35.25102997,292,1000,292,660.4608154,292,17.65094948,292,21.46599388,292,28.07874298,292,36.82791519,
293.0700073,0.1526018679,293.0700073,4.42545414,293.0700073,9.766519547,293.0700073,27.41746712,293.0700073,1000,293.0700073,514.522583,293.0700073,13.83590221,293.0700073,16.12492943,293.0700073,22.5342083,293.0700073,27.82440567,
294,0.05086728558,294,3.815046549,294,8.087898254,294,22.27987099,294,1000,294,416.0435486,294,12.20814896,294,13.1746273,294,17.65094948,294,23.19548225,
295.0700073,0,295.0700073,3.153771877,295.0700073,7.121419907,295.0700073,18.56656075,295.0700073,1000,295.0700073,330.8408203,295.0700073,8.850908279,295.0700073,10.4277935,295.0700073,14.70064545,295.0700073,17.80355072,
296,0.1017345712,296,2.645098925,296,5.239330769,296,15.15845108,296,849.6362915,296,273.3607788,296,7.121419907,296,9.35958004,296,12.51335239,296,15.107584,
297.0700073,0.05086728558,297.0700073,2.136425972,297.0700073,4.527188301,297.0700073,11.75034332,297.0700073,690.1164551,297.0700073,219.4923401,297.0700073,6.511012554,297.0700073,7.121419907,297.0700073,9.613917351,297.0700073,12.46248531,
298,0.1017345712,298,1.882089615,298,3.560709953,298,10.12259007,298,570.9343872,298,183.5800476,298,4.67979002,298,5.544534206,298,8.494836807,298,10.07172298,
299.0700073,0.1526018679,299.0700073,1.576885939,299.0700073,3.00116992,299.0700073,7.833561897,299.0700073,456.6356201,299.0700073,144.1578827,299.0700073,3.815046549,299.0700073,5.188463211,299.0700073,7.070552826,299.0700073,8.800041199,
300,0.1017345712,300,1.220814943,300,2.594231606,300,6.511012554,300,386.0827026,300,121.9288864,300,3.815046549,300,3.76417923,300,5.849738121,300,6.154942036,
300.9299927,0.05086728558,300.9299927,1.068212986,300.9299927,2.034691334,300.9299927,5.697136402,300.9299927,323.5159607,300.9299927,103.9218674,300.9299927,2.848568201,300.9299927,3.255506277,300.9299927,5.08672905,300.9299927,5.849738121,
302.0299988,0.1017345712,302.0299988,0.8647438884,302.0299988,2.136425972,302.0299988,4.527188301,302.0299988,270.5122375,302.0299988,84.89750671,302.0299988,2.33989501,302.0299988,3.00116992,302.0299988,3.357240915,302.0299988,5.08672905,
302.9599915,0.05086728558,302.9599915,0.8647438884,302.9599915,1.729487777,302.9599915,4.069382668,302.9599915,236.8889618,302.9599915,72.74021912,302.9599915,2.034691334,302.9599915,2.33989501,302.9599915,3.357240915,302.9599915,4.221984863,
304.0599976,0.1017345712,304.0599976,0.7630093098,304.0599976,1.424284101,304.0599976,3.408108234,304.0599976,193.8552246,304.0599976,60.07426453,304.0599976,1.678620458,304.0599976,1.780354977,304.0599976,2.950302601,304.0599976,3.86591363,
305,0.05086728558,305,0.6104074717,305,1.119080305,305,3.10290432,305,167.7094421,305,51.12162399,305,1.373416781,305,1.882089615,305,2.695966244,305,3.306373835,
305.9299927,0.05086728558,305.9299927,0.5595401525,305.9299927,1.220814943,305.9299927,2.848568201,305.9299927,144.5139618,305.9299927,43.03372574,305.9299927,1.271682262,305.9299927,1.627753139,305.9299927,2.085558891,305.9299927,2.797700644,
307.0299988,0.1017345712,307.0299988,0.6104074717,307.0299988,0.9156111479,307.0299988,2.594231606,307.0299988,128.3381805,307.0299988,38.91347504,307.0299988,1.271682262,307.0299988,1.4751513,307.0299988,1.831222296,307.0299988,2.187293291,
307.9599915,0.1017345712,307.9599915,0.4578055739,307.9599915,0.9664784074,307.9599915,2.034691334,307.9599915,114.6039963,307.9599915,34.08108139,307.9599915,1.068212986,307.9599915,1.52601862,307.9599915,1.780354977,307.9599915,2.390762568,
309.0599976,0.1017345712,309.0599976,0.4578055739,309.0599976,0.7630093098,309.0599976,1.780354977,309.0599976,97.2073822,309.0599976,28.63828278,309.0599976,0.7630093098,309.0599976,1.220814943,309.0599976,1.678620458,309.0599976,2.187293291,
310,0.05086728558,310,0.3052037358,310,0.6612747312,310,1.52601862,310,88.45821381,310,26.70532608,310,0.8138765693,310,1.119080305,310,1.373416781,310,1.882089615,
311.0700073,0.05086728558,311.0700073,0.2543364167,311.0700073,0.9664784074,311.0700073,1.576885939,311.0700073,77.87782288,311.0700073,22.02553558,311.0700073,0.6612747312,311.0700073,0.9156111479,311.0700073,1.271682262,311.0700073,1.729487777,
312,0.05086728558,312,0.3560710251,312,0.4578055739,312,1.373416781,312,71.87547302,312,21.56772995,312,0.8138765693,312,0.9664784074,312,1.068212986,312,1.4751513,
313.0700073,0.1526018679,313.0700073,0.3560710251,313.0700073,0.6104074717,313.0700073,1.017345667,313.0700073,66.73788452,313.0700073,19.99084473,313.0700073,0.8138765693,313.0700073,0.7121420503,313.0700073,0.8647438884,313.0700073,1.4751513,
314,0.1526018679,314,0.1526018679,314,0.4578055739,314,1.220814943,314,59.31125641,314,17.34574509,314,0.6104074717,314,0.9156111479,314,1.271682262,314,1.271682262,
315.0700073,0.1526018679,315.0700073,0.3560710251,315.0700073,0.4069382846,315.0700073,1.017345667,315.0700073,54.6823349,315.0700073,15.2601862,315.0700073,0.7121420503,315.0700073,0.7630093098,315.0700073,0.7121420503,315.0700073,1.271682262,
316,0.1526018679,316,0.3560710251,316,0.4578055739,316,1.017345667,316,49.29040146,316,14.54804325,316,0.5595401525,316,0.6612747312,316,0.8647438884,316,1.424284101,
317.0700073,0.1017345712,317.0700073,0.2543364167,317.0700073,0.4069382846,317.0700073,0.8138765693,317.0700073,46.54356766,317.0700073,13.32722855,317.0700073,0.8138765693,317.0700073,0.7630093098,317.0700073,0.8138765693,317.0700073,0.9664784074,
318,0.05086728558,318,0.2543364167,318,0.3560710251,318,1.017345667,318,43.89847183,318,12.7676897,318,0.6104074717,318,0.6104074717,318,0.7121420503,318,0.9664784074,
319.0700073,0.1017345712,319.0700073,0.3052037358,319.0700073,0.3560710251,319.0700073,0.7121420503,319.0700073,40.64296341,319.0700073,11.90294552,319.0700073,0.6104074717,319.0700073,0.5086728334,319.0700073,0.6104074717,319.0700073,1.119080305,
320,0.1526018679,320,0.2034691423,320,0.3560710251,320,0.8647438884,320,37.48918915,320,12.30988407,320,0.5086728334,320,0.5086728334,320,0.8647438884,320,0.6612747312,
320.9299927,0.1526018679,320.9299927,0.2543364167,320.9299927,0.4069382846,320.9299927,0.8138765693,320.9299927,36.31924438,320.9299927,10.83473206,320.9299927,0.4069382846,320.9299927,0.4578055739,320.9299927,0.6104074717,320.9299927,0.8138765693,
322.0299988,0.1017345712,322.0299988,0.2543364167,322.0299988,0.3560710251,322.0299988,0.7121420503,322.0299988,35.40363312,322.0299988,9.461315155,322.0299988,0.5086728334,322.0299988,0.4578055739,322.0299988,0.4578055739,322.0299988,0.6104074717,
322.9599915,0.1017345712,322.9599915,0.3560710251,322.9599915,0.3052037358,322.9599915,0.5595401525,322.9599915,34.38628387,322.9599915,9.35958004,322.9599915,0.3052037358,322.9599915,0.6612747312,322.9599915,0.6104074717,322.9599915,1.017345667,
324.0599976,0.1017345712,324.0599976,0.3052037358,324.0599976,0.4069382846,324.0599976,0.8138765693,324.0599976,32.14812469,324.0599976,9.156111717,324.0599976,0.4578055739,324.0599976,0.3560710251,324.0599976,0.7121420503,324.0599976,1.017345667,
325,0.1017345712,325,0.1526018679,325,0.3560710251,325,0.7121420503,325,29.04522133,325,8.850908279,325,0.3560710251,325,0.4069382846,325,0.6612747312,325,0.7121420503,
325.9299927,0.1526018679,325.9299927,0.2543364167,325.9299927,0.4578055739,325.9299927,0.5086728334,325.9299927,30.7747097,325.9299927,8.24050045,325.9299927,0.4069382846,325.9299927,0.4069382846,325.9299927,0.4578055739,325.9299927,0.9156111479,
327.0299988,0.05086728558,327.0299988,0.1526018679,327.0299988,0.4578055739,327.0299988,0.6612747312,327.0299988,29.24868965,327.0299988,8.443969727,327.0299988,0.3560710251,327.0299988,0.4069382846,327.0299988,0.5595401525,327.0299988,0.6104074717,
327.9599915,0.1017345712,327.9599915,0.05086728558,327.9599915,0.2034691423,327.9599915,0.6612747312,327.9599915,27.01053047,327.9599915,8.342235565,327.9599915,0.4578055739,327.9599915,0.3052037358,327.9599915,0.3560710251,327.9599915,0.9664784074,
329.0599976,0.1526018679,329.0599976,0.3052037358,329.0599976,0.2034691423,329.0599976,0.4578055739,329.0599976,26.60359001,329.0599976,8.393102646,329.0599976,0.4069382846,329.0599976,0.5086728334,329.0599976,0.5595401525,329.0599976,0.7630093098,
330,0.2034691423,330,0.2034691423,330,0.2543364167,330,0.7121420503,330,25.17930794,330,7.935296535,330,0.3052037358,330,0.3560710251,330,0.4578055739,330,0.8138765693,
331.0700073,0.1017345712,331.0700073,0.2034691423,331.0700073,0.4069382846,331.0700073,0.7121420503,331.0700073,25.38277626,331.0700073,7.121419907,331.0700073,0.3560710251,331.0700073,0.3052037358,331.0700073,0.4578055739,331.0700073,0.5595401525,
332,0.1526018679,332,0.2034691423,332,0.3052037358,332,0.4578055739,332,24.21282768,332,7.121419907,332,0.4069382846,332,0.5086728334,332,0.5086728334,332,0.5595401525,
333.0700073,0.1017345712,333.0700073,0.1526018679,333.0700073,0.2543364167,333.0700073,0.5595401525,333.0700073,24.61976814,333.0700073,7.019685745,333.0700073,0.3560710251,333.0700073,0.2543364167,333.0700073,0.5595401525,333.0700073,0.7630093098,
334,0.1017345712,334,0.2034691423,334,0.1526018679,334,0.6104074717,334,23.50068665,334,7.630093098,334,0.3052037358,334,0.2543364167,334,0.3560710251,334,0.3560710251,
335.0700073,0.2034691423,335.0700073,0.2034691423,335.0700073,0.3052037358,335.0700073,0.4578055739,335.0700073,22.73767853,335.0700073,6.460145473,335.0700073,0.3560710251,335.0700073,0.3052037358,335.0700073,0.5086728334,335.0700073,0.5086728334,
336,0.1017345712,336,0.1526018679,336,0.2034691423,336,0.4578055739,336,23.60242081,336,6.765349388,336,0.3560710251,336,0.4578055739,336,0.4069382846,336,0.4578055739,
337.0700073,0.1017345712,337.0700073,0.2034691423,337.0700073,0.2543364167,337.0700073,0.6104074717,337.0700073,21.9746685,337.0700073,6.511012554,337.0700073,0.2543364167,337.0700073,0.4069382846,337.0700073,0.5086728334,337.0700073,0.7121420503,
338,0,338,0.2034691423,338,0.3052037358,338,0.4578055739,338,22.07640266,338,6.714481831,338,0.5086728334,338,0.4069382846,338,0.3052037358,338,0.5595401525,
339.0700073,0.1526018679,339.0700073,0.1526018679,339.0700073,0.2034691423,339.0700073,0.6612747312,339.0700073,20.29604912,339.0700073,6.154942036,339.0700073,0.2543364167,339.0700073,0.3560710251,339.0700073,0.4069382846,339.0700073,0.6104074717,
340,0.1526018679,340,0.2543364167,340,0.3560710251,340,0.6104074717,340,22.22900391,340,5.697136402,340,0.3560710251,340,0.1526018679,340,0.4578055739,340,0.5595401525,
341.0700073,0.1017345712,341.0700073,0.2034691423,341.0700073,0.1526018679,341.0700073,0.5595401525,341.0700073,19.53303909,341.0700073,6.409277916,341.0700073,0.3560710251,341.0700073,0.3052037358,341.0700073,0.4069382846,341.0700073,0.7121420503,
342,0,342,0.05086728558,342,0.4069382846,342,0.5595401525,342,20.85558701,342,6.00233984,342,0.2543364167,342,0.3560710251,342,0.5086728334,342,0.6104074717,
343.0700073,0.05086728558,343.0700073,0.2543364167,343.0700073,0.2543364167,343.0700073,0.5595401525,343.0700073,20.44864845,343.0700073,6.256676197,343.0700073,0.1017345712,343.0700073,0.4069382846,343.0700073,0.4069382846,343.0700073,0.5086728334,
344,0.05086728558,344,0.1017345712,344,0.2543364167,344,0.5595401525,344,20.80471992,344,6.20580864,344,0.2543364167,344,0.3560710251,344,0.5086728334,344,0.5595401525,
345.0700073,0,345.0700073,0.1017345712,345.0700073,0.3052037358,345.0700073,0.4069382846,345.0700073,20.39778137,345.0700073,5.595401287,345.0700073,0.2034691423,345.0700073,0.2034691423,345.0700073,0.5086728334,345.0700073,0.3560710251,
346,0,346,0.1017345712,346,0.2543364167,346,0.3560710251,346,20.09257889,346,5.595401287,346,0.3560710251,346,0.3052037358,346,0.4069382846,346,0.4578055739,
347.0700073,0.1526018679,347.0700073,0.1017345712,347.0700073,0.2543364167,347.0700073,0.4578055739,347.0700073,19.53303909,347.0700073,5.697136402,347.0700073,0.2543364167,347.0700073,0.3560710251,347.0700073,0.5086728334,347.0700073,0.5086728334,
348,0.1017345712,348,0.2034691423,348,0.1526018679,348,0.5595401525,348,19.48217201,348,5.391932487,348,0.2543364167,348,0.4578055739,348,0.4578055739,348,0.6104074717,
349.0700073,0.05086728558,349.0700073,0.2543364167,349.0700073,0.2034691423,349.0700073,0.3052037358,349.0700073,19.63477135,349.0700073,5.137595654,349.0700073,0.2543364167,349.0700073,0.2034691423,349.0700073,0.4578055739,349.0700073,0.5086728334,
350,0.1017345712,350,0.1017345712,350,0.2543364167,350,0.4578055739,350,17.70181656,350,5.035861492,350,0.2543364167,350,0.3560710251,350,0.4069382846,350,0.5595401525,
351.0700073,0.1017345712,351.0700073,0.3052037358,351.0700073,0.2543364167,351.0700073,0.6104074717,351.0700073,19.12610054,351.0700073,5.646268845,351.0700073,0.2034691423,351.0700073,0.4069382846,351.0700073,0.4578055739,351.0700073,0.6104074717,
352,0.1526018679,352,0.1526018679,352,0.2543364167,352,0.6104074717,352,20.14344597,352,5.595401287,352,0.2543364167,352,0.3560710251,352,0.4578055739,352,0.4069382846,
353.0700073,0.1017345712,353.0700073,0.3560710251,353.0700073,0.2034691423,353.0700073,0.5086728334,353.0700073,18.56656075,353.0700073,5.798870564,353.0700073,0.3052037358,353.0700073,0.4069382846,353.0700073,0.3052037358,353.0700073,0.5595401525,
354,0.1526018679,354,0.1526018679,354,0.1526018679,354,0.5086728334,354,18.97349739,354,5.544534206,354,0.2543364167,354,0.4069382846,354,0.3052037358,354,0.7121420503,
355.0700073,0.1017345712,355.0700073,0.3052037358,355.0700073,0.3560710251,355.0700073,0.4578055739,355.0700073,19.83824158,355.0700073,5.239330769,355.0700073,0.3052037358,355.0700073,0.3560710251,355.0700073,0.3052037358,355.0700073,0.5595401525,
356,0.1526018679,356,0.05086728558,356,0.2034691423,356,0.5595401525,356,19.58390427,356,5.748003483,356,0.3560710251,356,0.4069382846,356,0.4069382846,356,0.6612747312,
357.0700073,0,357.0700073,0.05086728558,357.0700073,0.3560710251,357.0700073,0.4069382846,357.0700073,19.7873745,357.0700073,5.798870564,357.0700073,0.2543364167,357.0700073,0.4069382846,357.0700073,0.4578055739,357.0700073,0.6104074717,
358,0.1017345712,358,0.1526018679,358,0.2543364167,358,0.5086728334,358,19.68564034,358,5.544534206,358,0.3052037358,358,0.3560710251,358,0.3560710251,358,0.5086728334,
359.0700073,0.1526018679,359.0700073,0.2034691423,359.0700073,0.2034691423,359.0700073,0.6612747312,359.0700073,20.49951553,359.0700073,6.053206921,359.0700073,0.2543364167,359.0700073,0.3560710251,359.0700073,0.4069382846,359.0700073,0.4578055739,
360,0.1526018679,360,0.05086728558,360,0.2543364167,360,0.4069382846,360,20.09257889,360,4.984993935,360,0.2543364167,360,0.5595401525,360,0.3560710251,360,0.5086728334,
361.0700073,0.1017345712,361.0700073,0.2034691423,361.0700073,0.4069382846,361.0700073,0.5595401525,361.0700073,20.90645599,361.0700073,6.358410835,361.0700073,0.2543364167,361.0700073,0.3560710251,361.0700073,0.4069382846,361.0700073,0.5595401525,
362,0.1017345712,362,0.2543364167,362,0.3560710251,362,0.4578055739,362,19.83824158,362,5.849738121,362,0.3052037358,362,0.4069382846,362,0.3560710251,362,0.6612747312,
363.0700073,0.05086728558,363.0700073,0.1017345712,363.0700073,0.2543364167,363.0700073,0.4069382846,363.0700073,19.2278347,363.0700073,6.154942036,363.0700073,0.3560710251,363.0700073,0.3560710251,363.0700073,0.4578055739,363.0700073,0.5595401525,
364,0.2034691423,364,0.2543364167,364,0.2034691423,364,0.3560710251,364,21.05905724,364,6.20580864,364,0.3560710251,364,0.4069382846,364,0.5086728334,364,0.6104074717,
365.0700073,0.05086728558,365.0700073,0.2034691423,365.0700073,0.2543364167,365.0700073,0.6104074717,365.0700073,20.90645599,365.0700073,5.798870564,365.0700073,0.3052037358,365.0700073,0.4069382846,365.0700073,0.4069382846,365.0700073,0.5086728334,
366,0.1017345712,366,0.1017345712,366,0.2543364167,366,0.4578055739,366,20.95732307,366,6.20580864,366,0.5086728334,366,0.4069382846,366,0.3052037358,366,0.6612747312,
367.0700073,0.1526018679,367.0700073,0.1526018679,367.0700073,0.3560710251,367.0700073,0.5086728334,367.0700073,22.33073807,367.0700073,6.612747669,367.0700073,0.3052037358,367.0700073,0.4578055739,367.0700073,0.3560710251,367.0700073,0.7630093098,
368,0.05086728558,368,0.2543364167,368,0.3560710251,368,0.3560710251,368,22.43247414,368,6.765349388,368,0.3560710251,368,0.3052037358,368,0.3560710251,368,0.6104074717,
369.0700073,0.1526018679,369.0700073,0.1017345712,369.0700073,0.2543364167,369.0700073,0.5595401525,369.0700073,23.55155373,369.0700073,6.663614273,369.0700073,0.4578055739,369.0700073,0.3560710251,369.0700073,0.4069382846,369.0700073,0.6612747312,
370,0,370,0.1526018679,370,0.2543364167,370,0.6104074717,370,24.46716499,370,5.697136402,370,0.4069382846,370,0.3052037358,370,0.4578055739,370,0.7121420503,
371.0700073,0.1017345712,371.0700073,0.4069382846,371.0700073,0.2543364167,371.0700073,0.6612747312,371.0700073,24.1619606,371.0700073,6.409277916,371.0700073,0.4069382846,371.0700073,0.4578055739,371.0700073,0.4069382846,371.0700073,0.7630093098,
372,0.1526018679,372,0.2543364167,372,0.2034691423,372,0.4069382846,372,24.77236748,372,7.324889183,372,0.3560710251,372,0.4069382846,372,0.2543364167,372,0.6104074717,
373.0700073,0.05086728558,373.0700073,0.1526018679,373.0700073,0.2543364167,373.0700073,0.7121420503,373.0700073,26.29838753,373.0700073,7.731827259,373.0700073,0.3052037358,373.0700073,0.4069382846,373.0700073,0.4069382846,373.0700073,0.7630093098,
374,0.05086728558,374,0.2034691423,374,0.3560710251,374,0.6104074717,374,26.55272293,374,7.121419907,374,0.2543364167,374,0.3052037358,374,0.5086728334,374,0.7630093098,
375.0700073,0.1017345712,375.0700073,0.2543364167,375.0700073,0.1526018679,375.0700073,0.7121420503,375.0700073,27.01053047,375.0700073,7.324889183,375.0700073,0.2543364167,375.0700073,0.4578055739,375.0700073,0.6104074717,375.0700073,0.7630093098,
376,0.1017345712,376,0.1526018679,376,0.2543364167,376,0.6104074717,376,27.31573486,376,7.274021626,376,0.5595401525,376,0.3052037358,376,0.4578055739,376,0.7121420503,
377.0700073,0.1526018679,377.0700073,0.3052037358,377.0700073,0.3560710251,377.0700073,0.6612747312,377.0700073,27.57006836,377.0700073,7.172287464,377.0700073,0.4069382846,377.0700073,0.3052037358,377.0700073,0.5595401525,377.0700073,0.6104074717,
378,0.1526018679,378,0.3052037358,378,0.3560710251,378,0.5595401525,378,27.92614174,378,8.291367531,378,0.1017345712,378,0.3052037358,378,0.6104074717,378,0.6612747312,
379.0700073,0.1526018679,379.0700073,0.2543364167,379.0700073,0.3560710251,379.0700073,0.7630093098,379.0700073,28.63828278,379.0700073,8.494836807,379.0700073,0.3560710251,379.0700073,0.3052037358,379.0700073,0.4069382846,379.0700073,0.8138765693,
380,0.1017345712,380,0.2543364167,380,0.2543364167,380,0.5595401525,380,29.85909843,380,9.105244637,380,0.5086728334,380,0.3052037358,380,0.4069382846,380,0.7630093098,
381.0599976,0.1017345712,381.0599976,0.1526018679,381.0599976,0.3560710251,381.0599976,0.7121420503,381.0599976,30.57123947,381.0599976,9.054376602,381.0599976,0.3560710251,381.0599976,0.5595401525,381.0599976,0.5595401525,381.0599976,0.8138765693,
381.9599915,0.1017345712,381.9599915,0.3560710251,381.9599915,0.2543364167,381.9599915,0.9664784074,381.9599915,31.99552345,381.9599915,8.90177536,381.9599915,0.3560710251,381.9599915,0.4578055739,381.9599915,0.3560710251,381.9599915,0.5595401525,
383.0299988,0.1017345712,383.0299988,0.1526018679,383.0299988,0.3052037358,383.0299988,0.5595401525,383.0299988,30.7747097,383.0299988,9.003509521,383.0299988,0.2543364167,383.0299988,0.4578055739,383.0299988,0.6104074717,383.0299988,0.8138765693,
383.9299927,0.1017345712,383.9299927,0.1526018679,383.9299927,0.4069382846,383.9299927,0.5595401525,383.9299927,30.7747097,383.9299927,8.800041199,383.9299927,0.3560710251,383.9299927,0.4578055739,383.9299927,0.5595401525,383.9299927,0.8138765693,
385,0.1017345712,385,0.2543364167,385,0.5086728334,385,0.9156111479,385,32.04639435,385,9.613917351,385,0.5086728334,385,0.5595401525,385,0.5595401525,385,0.9664784074,
386.0599976,0.05086728558,386.0599976,0.2543364167,386.0599976,0.2543364167,386.0599976,0.6104074717,386.0599976,32.86026764,386.0599976,9.613917351,386.0599976,0.3560710251,386.0599976,0.3560710251,386.0599976,0.7121420503,386.0599976,0.5595401525,
386.9599915,0.1017345712,386.9599915,0.3052037358,386.9599915,0.4069382846,386.9599915,0.6104074717,386.9599915,32.9620018,386.9599915,9.105244637,386.9599915,0.4578055739,386.9599915,0.4578055739,386.9599915,0.5086728334,386.9599915,0.7121420503,
388.0299988,0,388.0299988,0.2034691423,388.0299988,0.5595401525,388.0299988,0.5595401525,388.0299988,32.9620018,388.0299988,9.817385674,388.0299988,0.6104074717,388.0299988,0.5086728334,388.0299988,0.6612747312,388.0299988,0.7121420503,
388.9299927,0.1526018679,388.9299927,0.4069382846,388.9299927,0.4069382846,388.9299927,0.5595401525,388.9299927,32.9620018,388.9299927,9.257846832,388.9299927,0.5595401525,388.9299927,0.5086728334,388.9299927,0.6612747312,388.9299927,0.8138765693,
390,0.1017345712,390,0.2034691423,390,0.3560710251,390,0.7121420503,390,33.87761307,390,10.22432423,390,0.2034691423,390,0.4578055739,390,0.7121420503,390,0.6612747312,
391.0700073,0.1017345712,391.0700073,0.3052037358,391.0700073,0.3560710251,391.0700073,0.5086728334,391.0700073,33.16547012,391.0700073,9.766519547,391.0700073,0.6612747312,391.0700073,0.6104074717,391.0700073,0.4578055739,391.0700073,0.8138765693,
392,0.1017345712,392,0.3052037358,392,0.4069382846,392,0.5086728334,392,33.92847824,392,10.93646717,392,0.4069382846,392,0.4578055739,392,0.7121420503,392,0.7121420503,
393.0700073,0.1017345712,393.0700073,0.2543364167,393.0700073,0.2543364167,393.0700073,0.7630093098,393.0700073,34.3354187,393.0700073,9.919120789,393.0700073,0.3560710251,393.0700073,0.5086728334,393.0700073,0.6612747312,393.0700073,0.5595401525,
394,0.1017345712,394,0.2034691423,394,0.3052037358,394,0.8138765693,394,35.50536728,394,9.919120789,394,0.7630093098,394,0.5086728334,394,0.4069382846,394,1.119080305,
395.0700073,0.2034691423,395.0700073,0.3052037358,395.0700073,0.3560710251,395.0700073,0.7121420503,395.0700073,35.65796661,395.0700073,10.07172298,395.0700073,0.4578055739,395.0700073,0.5086728334,395.0700073,0.6612747312,395.0700073,0.7121420503,
396,0.05086728558,396,0.3052037358,396,0.3560710251,396,0.6104074717,396,36.47184372,396,10.52952862,396,0.4069382846,396,0.6104074717,396,0.6612747312,396,0.7630093098,
397.0700073,0.1017345712,397.0700073,0.3560710251,397.0700073,0.3560710251,397.0700073,0.6612747312,397.0700073,37.23485565,397.0700073,10.88559914,397.0700073,0.3560710251,397.0700073,0.6104074717,397.0700073,0.7630093098,397.0700073,0.6612747312,
398,0.05086728558,398,0.1526018679,398,0.5595401525,398,0.8138765693,398,36.42097855,398,11.24167061,398,0.4069382846,398,0.4578055739,398,0.6612747312,398,0.9156111479,
399.0700073,0.1017345712,399.0700073,0.2034691423,399.0700073,0.4578055739,399.0700073,0.6612747312,399.0700073,37.13312149,399.0700073,10.83473206,399.0700073,0.7121420503,399.0700073,0.4578055739,399.0700073,0.7121420503,399.0700073,0.5595401525,
400,0.1526018679,400,0.3052037358,400,0.2543364167,400,0.6612747312,400,37.18399048,400,10.63126373,400,0.4578055739,400,0.4069382846,400,0.8138765693,400,0.9664784074,
401.0700073,0,401.0700073,0.3560710251,401.0700073,0.5595401525,401.0700073,0.7121420503,401.0700073,36.57357788,401.0700073,11.34340477,401.0700073,0.4578055739,401.0700073,0.6104074717,401.0700073,0.7121420503,401.0700073,0.7630093098,
402,0.1017345712,402,0.2543364167,402,0.2034691423,402,0.5595401525,402,37.13312149,402,11.59774113,402,0.4578055739,402,0.4069382846,402,0.6612747312,402,0.6612747312,
403.0700073,0.1526018679,403.0700073,0.3560710251,403.0700073,0.4578055739,403.0700073,0.7630093098,403.0700073,37.79439545,403.0700073,11.59774113,403.0700073,0.4578055739,403.0700073,0.3560710251,403.0700073,0.7121420503,403.0700073,0.7121420503,
404,0.2034691423,404,0.1526018679,404,0.4069382846,404,0.6104074717,404,37.74352646,404,10.4277935,404,0.4069382846,404,0.4069382846,404,0.7121420503,404,0.8647438884,
405.0700073,0.05086728558,405.0700073,0.3052037358,405.0700073,0.5086728334,405.0700073,0.7121420503,405.0700073,36.82791519,405.0700073,11.08906841,405.0700073,0.4069382846,405.0700073,0.6612747312,405.0700073,0.4069382846,405.0700073,0.9156111479,
406,0.1017345712,406,0.2543364167,406,0.3052037358,406,0.6612747312,406,37.43832016,406,11.59774113,406,0.6104074717,406,0.5086728334,406,0.6612747312,406,0.8647438884,
407.0700073,0.1017345712,407.0700073,0.3560710251,407.0700073,0.3560710251,407.0700073,0.6104074717,407.0700073,38.09959793,407.0700073,11.8012104,407.0700073,0.3560710251,407.0700073,0.7121420503,407.0700073,0.8138765693,407.0700073,0.6104074717,
408,0.1526018679,408,0.4578055739,408,0.4578055739,408,0.6104074717,408,37.59092331,408,10.93646717,408,0.5086728334,408,0.4578055739,408,0.8138765693,408,0.7630093098,
409.0700073,0.1526018679,409.0700073,0.2543364167,409.0700073,0.2543364167,409.0700073,0.7121420503,409.0700073,37.74352646,409.0700073,11.24167061,409.0700073,0.2034691423,409.0700073,0.6104074717,409.0700073,0.8647438884,409.0700073,0.7121420503,
410,0.1017345712,410,0.3052037358,410,0.4069382846,410,0.6612747312,410,37.89612961,410,11.13993549,410,0.4578055739,410,0.3560710251,410,0.5595401525,410,0.6612747312,
411.0599976,0.1526018679,411.0599976,0.3052037358,411.0599976,0.3052037358,411.0599976,0.6612747312,411.0599976,36.57357788,411.0599976,12.30988407,411.0599976,0.4578055739,411.0599976,0.5086728334,411.0599976,0.7121420503,411.0599976,0.6612747312,
411.9599915,0.2543364167,411.9599915,0.4069382846,411.9599915,0.3560710251,411.9599915,0.8138765693,411.9599915,37.23485565,411.9599915,11.08906841,411.9599915,0.4578055739,411.9599915,0.5086728334,411.9599915,0.5595401525,411.9599915,0.7121420503,
413.0299988,0.1526018679,413.0299988,0.3560710251,413.0299988,0.2543364167,413.0299988,0.7121420503,413.0299988,37.6417923,413.0299988,11.49600697,413.0299988,0.4578055739,413.0299988,0.6612747312,413.0299988,0.5595401525,413.0299988,0.8647438884,
413.9299927,0.2034691423,413.9299927,0.1526018679,413.9299927,0.5086728334,413.9299927,0.7121420503,413.9299927,36.98051834,413.9299927,11.85207844,413.9299927,0.4578055739,413.9299927,0.5595401525,413.9299927,0.5595401525,413.9299927,0.8138765693,
415,0.2034691423,415,0.2034691423,415,0.4069382846,415,0.7121420503,415,37.74352646,415,11.90294552,415,0.6612747312,415,0.5086728334,415,0.7121420503,415,0.7121420503,
416.0599976,0.1526018679,416.0599976,0.2543364167,416.0599976,0.4069382846,416.0599976,0.6612747312,416.0599976,37.54005814,416.0599976,10.5803957,416.0599976,0.4578055739,416.0599976,0.6612747312,416.0599976,0.8138765693,416.0599976,0.8138765693,
416.9599915,0.1526018679,416.9599915,0.3560710251,416.9599915,0.4578055739,416.9599915,0.8138765693,416.9599915,35.20016479,416.9599915,11.44513988,416.9599915,0.4578055739,416.9599915,0.5595401525,416.9599915,0.6612747312,416.9599915,0.8138765693,
418.0299988,0.3560710251,418.0299988,0.1526018679,418.0299988,0.3560710251,418.0299988,0.6612747312,418.0299988,36.37010956,418.0299988,10.73299694,418.0299988,0.4069382846,418.0299988,0.5595401525,418.0299988,0.8647438884,418.0299988,0.9156111479,
418.9299927,0.1017345712,418.9299927,0.3560710251,418.9299927,0.5086728334,418.9299927,0.8138765693,418.9299927,36.37010956,418.9299927,10.93646717,418.9299927,0.4578055739,418.9299927,0.6612747312,418.9299927,0.5595401525,418.9299927,0.7121420503,
420,0.1017345712,420,0.2543364167,420,0.2543364167,420,0.7121420503,420,36.21750641,420,11.13993549,420,0.5595401525,420,0.7121420503,420,0.5086728334,420,0.7121420503,
421.0599976,0.3052037358,421.0599976,0.2034691423,421.0599976,0.6612747312,421.0599976,0.6612747312,421.0599976,36.37010956,421.0599976,11.03820133,421.0599976,0.4578055739,421.0599976,0.6104074717,421.0599976,0.6612747312,421.0599976,0.7121420503,
421.9599915,0.2543364167,421.9599915,0.4069382846,421.9599915,0.6104074717,421.9599915,0.7121420503,421.9599915,35.65796661,421.9599915,10.78386497,421.9599915,0.6104074717,421.9599915,0.5086728334,421.9599915,0.6612747312,421.9599915,0.8647438884,
423.0299988,0.2543364167,423.0299988,0.3560710251,423.0299988,0.3560710251,423.0299988,0.7121420503,423.0299988,35.75970078,423.0299988,10.5803957,423.0299988,0.5595401525,423.0299988,0.6104074717,423.0299988,0.5595401525,423.0299988,0.8647438884,
423.9299927,0.3560710251,423.9299927,0.3052037358,423.9299927,0.4578055739,423.9299927,0.7121420503,423.9299927,35.20016479,423.9299927,11.19080257,423.9299927,0.4069382846,423.9299927,0.4578055739,423.9299927,0.7630093098,423.9299927,0.9156111479,
425,0.2543364167,425,0.3052037358,425,0.6104074717,425,0.6612747312,425,34.64062119,425,10.83473206,425,0.5595401525,425,0.4578055739,425,0.6612747312,425,0.6612747312,
426.0599976,0.2034691423,426.0599976,0.3052037358,426.0599976,0.4069382846,426.0599976,0.8138765693,426.0599976,33.21633911,426.0599976,10.47866154,426.0599976,0.6104074717,426.0599976,0.5595401525,426.0599976,0.3560710251,426.0599976,0.9664784074,
426.9599915,0.4069382846,426.9599915,0.5086728334,426.9599915,0.4069382846,426.9599915,0.9156111479,426.9599915,34.28454971,426.9599915,9.919120789,426.9599915,0.7121420503,426.9599915,0.5595401525,426.9599915,0.6612747312,426.9599915,0.9156111479,
428.0299988,0.3560710251,428.0299988,0.4578055739,428.0299988,0.4578055739,428.0299988,0.7630093098,428.0299988,33.16547012,428.0299988,10.1734581,428.0299988,0.5086728334,428.0299988,0.6104074717,428.0299988,0.6612747312,428.0299988,0.8647438884,
428.9299927,0.6104074717,428.9299927,0.3560710251,428.9299927,0.5595401525,428.9299927,0.5086728334,428.9299927,33.31807327,428.9299927,9.969987869,428.9299927,0.6612747312,428.9299927,0.5595401525,428.9299927,0.4578055739,428.9299927,0.9156111479,
430,0.4578055739,430,0.5086728334,430,0.5595401525,430,1.017345667,430,32.19898987,430,9.766519547,430,0.4578055739,430,0.6612747312,430,0.7630093098,430,0.9664784074,
431.0599976,0.5595401525,431.0599976,0.5086728334,431.0599976,0.5086728334,431.0599976,0.7121420503,431.0599976,32.45332718,431.0599976,10.12259007,431.0599976,0.5595401525,431.0599976,0.5595401525,431.0599976,0.7630093098,431.0599976,0.9664784074,
431.9599915,0.5086728334,431.9599915,0.4069382846,431.9599915,0.4069382846,431.9599915,0.8647438884,431.9599915,33.82674789,431.9599915,9.664784431,431.9599915,0.4578055739,431.9599915,0.6612747312,431.9599915,0.6104074717,431.9599915,0.9156111479,
433.0299988,0.6104074717,433.0299988,0.6104074717,433.0299988,0.6104074717,433.0299988,0.6612747312,433.0299988,30.87644196,433.0299988,9.461315155,433.0299988,0.5086728334,433.0299988,0.5086728334,433.0299988,0.5595401525,433.0299988,1.068212986,
433.9299927,0.5086728334,433.9299927,0.4578055739,433.9299927,0.5595401525,433.9299927,0.7630093098,433.9299927,31.89378929,433.9299927,9.156111717,433.9299927,0.7121420503,433.9299927,0.7121420503,433.9299927,1.017345667,433.9299927,1.068212986,
435,0.8138765693,435,0.5595401525,435,0.5595401525,435,0.7630093098,435,30.46950531,435,9.410448074,435,0.8647438884,435,0.5595401525,435,0.6104074717,435,0.9156111479,
436.0599976,0.7630093098,436.0599976,0.5595401525,436.0599976,0.6612747312,436.0599976,0.9664784074,436.0599976,30.36777115,436.0599976,9.512182236,436.0599976,0.7630093098,436.0599976,0.7630093098,436.0599976,0.8138765693,436.0599976,1.068212986,
436.9599915,0.9664784074,436.9599915,0.7630093098,436.9599915,0.7630093098,436.9599915,0.9156111479,436.9599915,30.52037239,436.9599915,9.308713913,436.9599915,0.9156111479,436.9599915,0.9156111479,436.9599915,0.7121420503,436.9599915,0.9664784074,
438.0299988,0.9664784074,438.0299988,0.8138765693,438.0299988,0.7630093098,438.0299988,0.8647438884,438.0299988,29.80823135,438.0299988,8.698306084,438.0299988,0.8138765693,438.0299988,0.6104074717,438.0299988,0.8647438884,438.0299988,0.9156111479,
438.9299927,1.068212986,438.9299927,0.7630093098,438.9299927,0.8138765693,438.9299927,1.271682262,438.9299927,31.18164635,438.9299927,9.410448074,438.9299927,0.9156111479,438.9299927,0.8647438884,438.9299927,0.8138765693,438.9299927,0.9664784074,
440,0.8647438884,440,0.6104074717,440,0.8138765693,440,1.373416781,440,28.74001694,440,8.800041199,440,0.7630093098,440,0.9156111479,440,0.8647438884,440,1.169947505,
441.0599976,1.220814943,441.0599976,0.9156111479,441.0599976,0.8647438884,441.0599976,0.9664784074,441.0599976,28.53654861,441.0599976,9.105244637,441.0599976,0.9664784074,441.0599976,1.119080305,441.0599976,1.119080305,441.0599976,1.119080305,
441.9599915,1.373416781,441.9599915,1.169947505,441.9599915,1.017345667,441.9599915,1.017345667,441.9599915,28.63828278,441.9599915,8.342235565,441.9599915,0.9664784074,441.9599915,0.6104074717,441.9599915,0.8647438884,441.9599915,1.068212986,
443.0299988,1.882089615,443.0299988,1.119080305,443.0299988,1.373416781,443.0299988,1.220814943,443.0299988,28.94348717,443.0299988,8.698306084,443.0299988,1.068212986,443.0299988,1.017345667,443.0299988,0.9156111479,443.0299988,1.220814943,
443.9299927,2.034691334,443.9299927,1.271682262,443.9299927,1.220814943,443.9299927,1.424284101,443.9299927,27.57006836,443.9299927,8.291367531,443.9299927,1.169947505,443.9299927,1.017345667,443.9299927,1.169947505,443.9299927,1.169947505,
445,1.831222296,445,1.119080305,445,1.169947505,445,1.576885939,445,27.01053047,445,8.138765335,445,1.169947505,445,1.424284101,445,1.119080305,445,1.220814943,
446.0599976,2.187293291,446.0599976,1.169947505,446.0599976,1.373416781,446.0599976,1.424284101,446.0599976,26.45099068,446.0599976,8.393102646,446.0599976,1.373416781,446.0599976,1.322549462,446.0599976,1.576885939,446.0599976,1.576885939,
446.9599915,2.594231606,446.9599915,1.373416781,446.9599915,1.169947505,446.9599915,1.271682262,446.9599915,26.75619316,446.9599915,8.037031174,446.9599915,1.169947505,446.9599915,1.373416781,446.9599915,1.271682262,446.9599915,1.322549462,
448.0299988,2.645098925,448.0299988,1.627753139,448.0299988,1.220814943,448.0299988,1.4751513,448.0299988,26.4001236,448.0299988,8.545703888,448.0299988,1.424284101,448.0299988,1.322549462,448.0299988,1.52601862,448.0299988,1.4751513,
448.9299927,3.00116992,448.9299927,1.4751513,448.9299927,1.576885939,448.9299927,1.322549462,448.9299927,26.29838753,448.9299927,8.342235565,448.9299927,1.4751513,448.9299927,1.373416781,448.9299927,1.424284101,448.9299927,1.322549462,
450,2.594231606,450,1.729487777,450,1.373416781,450,1.678620458,450,26.45099068,450,7.935296535,450,1.220814943,450,1.220814943,450,1.271682262,450,1.627753139,
451.0599976,2.848568201,451.0599976,1.780354977,451.0599976,1.4751513,451.0599976,1.627753139,451.0599976,26.70532608,451.0599976,8.189633369,451.0599976,1.271682262,451.0599976,1.220814943,451.0599976,1.169947505,451.0599976,1.373416781,
451.9599915,2.594231606,451.9599915,1.780354977,451.9599915,1.576885939,451.9599915,1.424284101,451.9599915,25.89144897,451.9599915,7.731827259,451.9599915,1.373416781,451.9599915,1.220814943,451.9599915,1.576885939,451.9599915,1.373416781,
453.0299988,2.797700644,453.0299988,1.831222296,453.0299988,1.678620458,453.0299988,1.424284101,453.0299988,27.21399879,453.0299988,7.680960655,453.0299988,1.52601862,453.0299988,1.322549462,453.0299988,1.4751513,453.0299988,1.576885939,
453.9299927,2.848568201,453.9299927,1.4751513,453.9299927,1.576885939,453.9299927,1.576885939,453.9299927,26.45099068,453.9299927,7.833561897,453.9299927,1.322549462,453.9299927,1.119080305,453.9299927,1.424284101,453.9299927,1.424284101,
455,2.492496967,455,1.576885939,455,1.373416781,455,1.576885939,455,27.21399879,455,7.57922554,455,1.373416781,455,1.322549462,455,1.4751513,455,1.52601862,
456.0599976,2.492496967,456.0599976,1.169947505,456.0599976,1.271682262,456.0599976,1.271682262,456.0599976,29.70649529,456.0599976,8.342235565,456.0599976,1.169947505,456.0599976,1.220814943,456.0599976,1.424284101,456.0599976,1.373416781,
456.9599915,1.983824134,456.9599915,1.220814943,456.9599915,1.220814943,456.9599915,1.322549462,456.9599915,30.41863823,456.9599915,7.477491379,456.9599915,1.373416781,456.9599915,1.271682262,456.9599915,1.424284101,456.9599915,1.4751513,
458.0299988,2.187293291,458.0299988,1.373416781,458.0299988,1.220814943,458.0299988,1.169947505,458.0299988,31.43598557,458.0299988,6.968818188,458.0299988,1.322549462,458.0299988,1.068212986,458.0299988,1.169947505,458.0299988,1.373416781,
458.9299927,1.729487777,458.9299927,1.119080305,458.9299927,0.7121420503,458.9299927,1.271682262,458.9299927,32.04639435,458.9299927,7.274021626,458.9299927,1.068212986,458.9299927,1.017345667,458.9299927,1.271682262,458.9299927,1.373416781,
460,1.729487777,460,0.8647438884,460,1.068212986,460,1.068212986,460,34.43715286,460,7.477491379,460,1.169947505,460,1.169947505,460,0.9664784074,460,1.017345667,
461.0599976,1.729487777,461.0599976,1.271682262,461.0599976,1.169947505,461.0599976,1.119080305,461.0599976,33.92847824,461.0599976,7.274021626,461.0599976,0.9664784074,461.0599976,1.169947505,461.0599976,0.9664784074,461.0599976,1.220814943,
461.9599915,1.627753139,461.9599915,1.068212986,461.9599915,0.8647438884,461.9599915,1.119080305,461.9599915,37.79439545,461.9599915,8.189633369,461.9599915,0.8647438884,461.9599915,1.119080305,461.9599915,1.169947505,461.9599915,0.9664784074,
463.0299988,1.780354977,463.0299988,0.8647438884,463.0299988,0.9664784074,463.0299988,1.220814943,463.0299988,35.9631691,463.0299988,7.121419907,463.0299988,1.220814943,463.0299988,0.9664784074,463.0299988,0.8138765693,463.0299988,1.068212986,
463.9299927,1.52601862,463.9299927,0.6612747312,463.9299927,0.9664784074,463.9299927,1.373416781,463.9299927,33.01287079,463.9299927,7.070552826,463.9299927,0.8647438884,463.9299927,1.017345667,463.9299927,1.119080305,463.9299927,1.220814943,
465,1.322549462,465,1.068212986,465,0.8647438884,465,1.017345667,465,33.72501373,465,6.663614273,465,0.7630093098,465,1.017345667,465,0.9664784074,465,1.068212986,
466.0599976,1.068212986,466.0599976,0.9156111479,466.0599976,0.8138765693,466.0599976,0.9156111479,466.0599976,31.43598557,466.0599976,6.561880112,466.0599976,1.017345667,466.0599976,0.9156111479,466.0599976,0.6612747312,466.0599976,0.9664784074,
466.9599915,1.169947505,466.9599915,0.8647438884,466.9599915,0.7630093098,466.9599915,0.8647438884,466.9599915,29.60476112,466.9599915,6.511012554,466.9599915,0.5595401525,466.9599915,0.6104074717,466.9599915,0.7630093098,466.9599915,1.017345667,
468.0299988,1.271682262,468.0299988,0.8138765693,468.0299988,0.6612747312,468.0299988,1.271682262,468.0299988,26.29838753,468.0299988,6.816216469,468.0299988,0.5595401525,468.0299988,0.7121420503,468.0299988,0.5086728334,468.0299988,0.9156111479,
468.9299927,0.8647438884,468.9299927,0.8138765693,468.9299927,0.6612747312,468.9299927,0.7630093098,468.9299927,26.60359001,468.9299927,6.612747669,468.9299927,0.6104074717,468.9299927,0.5595401525,468.9299927,1.017345667,468.9299927,0.9156111479,
470,1.068212986,470,0.5595401525,470,0.8647438884,470,0.8138765693,470,25.89144897,470,5.493667126,470,0.7630093098,470,0.9664784074,470,0.5595401525,470,0.8138765693,
471.0599976,1.119080305,471.0599976,0.6612747312,471.0599976,0.6612747312,471.0599976,1.068212986,471.0599976,24.92497063,471.0599976,5.239330769,471.0599976,0.8138765693,471.0599976,0.8138765693,471.0599976,0.7121420503,471.0599976,0.7121420503,
471.9599915,0.9156111479,471.9599915,0.7121420503,471.9599915,0.5086728334,471.9599915,0.8647438884,471.9599915,24.11109352,471.9599915,5.951472759,471.9599915,0.7630093098,471.9599915,0.8138765693,471.9599915,0.6612747312,471.9599915,1.068212986,
473.0299988,0.9156111479,473.0299988,0.8647438884,473.0299988,0.6612747312,473.0299988,0.7121420503,473.0299988,22.17813683,473.0299988,6.307543755,473.0299988,0.6104074717,473.0299988,0.7630093098,473.0299988,0.7121420503,473.0299988,0.8138765693,
473.9299927,0.8138765693,473.9299927,0.6104074717,473.9299927,0.7630093098,473.9299927,0.6612747312,473.9299927,23.19548225,473.9299927,5.748003483,473.9299927,0.6104074717,473.9299927,0.7121420503,473.9299927,0.7630093098,473.9299927,0.7630093098,
475,0.6104074717,475,0.4578055739,475,0.5595401525,475,0.6612747312,475,21.92380142,475,5.798870564,475,0.6612747312,475,0.8647438884,475,0.7630093098,475,0.9664784074,
476.0599976,0.5086728334,476.0599976,0.8138765693,476.0599976,0.5595401525,476.0599976,0.7630093098,476.0599976,22.33073807,476.0599976,6.307543755,476.0599976,0.6612747312,476.0599976,0.7630093098,476.0599976,0.7630093098,476.0599976,0.8647438884,
476.9599915,0.9664784074,476.9599915,0.5086728334,476.9599915,0.8138765693,476.9599915,1.017345667,476.9599915,22.63594246,476.9599915,6.663614273,476.9599915,0.5595401525,476.9599915,0.6612747312,476.9599915,0.6612747312,476.9599915,1.017345667,
478.0299988,0.8647438884,478.0299988,0.6612747312,478.0299988,0.4578055739,478.0299988,0.6612747312,478.0299988,21.66946411,478.0299988,5.697136402,478.0299988,0.5595401525,478.0299988,0.5595401525,478.0299988,0.7121420503,478.0299988,0.8647438884,
478.9299927,0.7630093098,478.9299927,0.8138765693,478.9299927,0.6612747312,478.9299927,0.7121420503,478.9299927,20.95732307,478.9299927,5.08672905,478.9299927,0.6104074717,478.9299927,0.7121420503,478.9299927,0.7121420503,478.9299927,0.8138765693,
480,0.6612747312,480,0.5595401525,480,0.4578055739,480,0.8647438884,480,21.61859703,480,5.239330769,480,0.5086728334,480,0.5595401525,480,0.6612747312,480,0.6104074717,
481.0400085,0.8138765693,481.0400085,0.5595401525,481.0400085,0.5086728334,481.0400085,0.6612747312,481.0400085,21.87293434,481.0400085,5.34106493,481.0400085,0.7630093098,481.0400085,0.9156111479,481.0400085,0.8138765693,481.0400085,0.6612747312,
481.9400024,0.6104074717,481.9400024,0.5086728334,481.9400024,0.4578055739,481.9400024,0.6612747312,481.9400024,21.1607914,481.9400024,5.798870564,481.9400024,0.4578055739,481.9400024,0.5086728334,481.9400024,0.8138765693,481.9400024,0.7121420503,
482.980011,0.7630093098,482.980011,0.4578055739,482.980011,0.6104074717,482.980011,0.8138765693,482.980011,21.9746685,482.980011,5.646268845,482.980011,0.5595401525,482.980011,0.6612747312,482.980011,0.6104074717,482.980011,0.9156111479,
484.019989,0.7630093098,484.019989,0.5086728334,484.019989,0.5086728334,484.019989,0.7121420503,484.019989,21.05905724,484.019989,5.34106493,484.019989,0.6104074717,484.019989,0.6104074717,484.019989,0.8138765693,484.019989,0.7630093098,
485.0700073,0.9664784074,485.0700073,0.3052037358,485.0700073,0.6104074717,485.0700073,0.7630093098,485.0700073,20.24518013,485.0700073,5.239330769,485.0700073,0.7121420503,485.0700073,0.6612747312,485.0700073,0.6612747312,485.0700073,0.7121420503,
485.9700012,0.6104074717,485.9700012,0.5086728334,485.9700012,0.5595401525,485.9700012,0.6612747312,485.9700012,20.6012516,485.9700012,6.307543755,485.9700012,0.7630093098,485.9700012,0.5086728334,485.9700012,0.7630093098,485.9700012,0.7630093098,
487.0100098,0.5595401525,487.0100098,0.4578055739,487.0100098,0.5086728334,487.0100098,0.6104074717,487.0100098,21.66946411,487.0100098,5.595401287,487.0100098,0.6104074717,487.0100098,0.7121420503,487.0100098,0.7121420503,487.0100098,0.6612747312,
488.0499878,0.4578055739,488.0499878,0.6104074717,488.0499878,0.5086728334,488.0499878,0.6104074717,488.0499878,21.36425972,488.0499878,5.748003483,488.0499878,0.5595401525,488.0499878,0.7630093098,488.0499878,0.6104074717,488.0499878,0.6612747312,
488.9500122,0.7121420503,488.9500122,0.6612747312,488.9500122,0.5595401525,488.9500122,0.4578055739,488.9500122,20.65211868,488.9500122,5.595401287,488.9500122,0.4578055739,488.9500122,0.7630093098,488.9500122,0.5595401525,488.9500122,0.8138765693,
490,0.5595401525,490,0.3052037358,490,0.8138765693,490,0.9664784074,490,21.1607914,490,5.391932487,490,0.4069382846,490,0.5595401525,490,0.8138765693,490,0.8138765693,
491.0599976,0.6104074717,491.0599976,0.6104074717,491.0599976,0.6104074717,491.0599976,0.6104074717,491.0599976,21.00819016,491.0599976,5.748003483,491.0599976,0.8138765693,491.0599976,0.7121420503,491.0599976,0.5595401525,491.0599976,0.4578055739,
491.9599915,0.6612747312,491.9599915,0.6612747312,491.9599915,0.5595401525,491.9599915,0.7630093098,491.9599915,21.46599388,491.9599915,5.748003483,491.9599915,0.6612747312,491.9599915,0.5086728334,491.9599915,0.4578055739,491.9599915,0.7121420503,
493.0299988,0.7630093098,493.0299988,0.5086728334,493.0299988,0.7121420503,493.0299988,0.6612747312,493.0299988,20.49951553,493.0299988,5.290197849,493.0299988,0.6104074717,493.0299988,0.6104074717,493.0299988,0.6612747312,493.0299988,0.5086728334,
493.9299927,0.6612747312,493.9299927,0.5086728334,493.9299927,0.5086728334,493.9299927,0.4069382846,493.9299927,21.72033119,493.9299927,5.493667126,493.9299927,0.5086728334,493.9299927,0.6104074717,493.9299927,0.6612747312,493.9299927,0.8138765693,
495,0.9156111479,495,0.4578055739,495,0.6612747312,495,0.7630093098,495,22.22900391,495,5.697136402,495,0.5086728334,495,0.4578055739,495,0.7630093098,495,0.8138765693,
496.0599976,0.5595401525,496.0599976,0.7121420503,496.0599976,0.4069382846,496.0599976,0.9156111479,496.0599976,21.31339264,496.0599976,5.646268845,496.0599976,0.5595401525,496.0599976,0.5595401525,496.0599976,0.7630093098,496.0599976,0.7630093098,
496.9599915,0.7121420503,496.9599915,0.6612747312,496.9599915,0.6612747312,496.9599915,0.5086728334,496.9599915,23.04288101,496.9599915,5.391932487,496.9599915,0.4578055739,496.9599915,0.7630093098,496.9599915,0.7121420503,496.9599915,0.8647438884,
498.0299988,0.5595401525,498.0299988,0.5595401525,498.0299988,0.5086728334,498.0299988,0.7121420503,498.0299988,22.02553558,498.0299988,5.544534206,498.0299988,0.7121420503,498.0299988,0.5595401525,498.0299988,0.6612747312,498.0299988,0.7630093098,
498.9299927,0.5595401525,498.9299927,0.5086728334,498.9299927,0.7121420503,498.9299927,0.7121420503,498.9299927,22.33073807,498.9299927,6.20580864,498.9299927,0.5086728334,498.9299927,0.5086728334,498.9299927,0.7630093098,498.9299927,0.9156111479,
500,0.8138765693,500,0.5086728334,500,0.6612747312,500,0.8647438884,500,22.58507538,500,5.798870564,500,0.3560710251,500,0.5086728334,500,0.7630093098,500,0.8647438884,

LED3_2,
LED3_2
Collection Time: 27.06.2023 11:37:13
Operator Name  : 370nm
Scan Software Version: 1.1(132)
Parameter List :
Instrument                      Cary Eclipse
Instrument Serial Number        EL08083863
Data mode                       Bio/Chemi-luminescence
Gate time (ms)                 5.0000
Scan mode                       Emission
X Mode                          Wavelength (nm)
Start (nm)                      200.00
Stop (nm)                       500.00
Em. Slit (nm)                   1.5
Data interval (nm)              1.0000
Emission filter                 Open
PMT voltage (V)                 Medium
Corrected spectra               OFF
Method Log     :
Method Name    : C:\Varian\Cary Eclipse WinFLR\Default.FMSW
Date/Time stamp: 27.08.2020 16:04:40
Method Modifications:
Instrument mode: Changed: 27.06.2023 11:36:57, Old:Fluorescence, New:Bio/Chemi-luminescence
Em. Slit Width (nm): Changed: 27.06.2023 11:36:57, Old:5, New:1.5
Scan Control Changed: 27.06.2023 11:36:57, Old:Medium, New:Manual
Ave. time (s): Changed: 27.06.2023 11:36:57, Old:0.10000, New:0.00500
Emission Wavelength Changed: 27.06.2023 11:36:57, Old: 400.00, New: 200.00
Stop Wavelength Changed: 27.06.2023 11:36:57, Old: 600.00, New: 500.00
End Method Modifications

LED3_3,
LED3_3
Collection Time: 27.06.2023 11:37:31
Operator Name  : 370nm
Scan Software Version: 1.1(132)
Parameter List :
Instrument                      Cary Eclipse
Instrument Serial Number        EL08083863
Data mode                       Bio/Chemi-luminescence
Gate time (ms)                 5.0000
Scan mode                       Emission
X Mode                          Wavelength (nm)
Start (nm)                      200.00
Stop (nm)                       500.00
Em. Slit (nm)                   1.5
Data interval (nm)              1.0000
Emission filter                 Open
PMT voltage (V)                 Medium
Corrected spectra               OFF
Method Log     :
Method Name    : C:\Varian\Cary Eclipse WinFLR\Default.FMSW
Date/Time stamp: 27.08.2020 16:04:40
Method Modifications:
Instrument mode: Changed: 27.06.2023 11:36:57, Old:Fluorescence, New:Bio/Chemi-luminescence
Em. Slit Width (nm): Changed: 27.06.2023 11:36:57, Old:5, New:1.5
Scan Control Changed: 27.06.2023 11:36:57, Old:Medium, New:Manual
Ave. time (s): Changed: 27.06.2023 11:36:57, Old:0.10000, New:0.00500
Emission Wavelength Changed: 27.06.2023 11:36:57, Old: 400.00, New: 200.00
Stop Wavelength Changed: 27.06.2023 11:36:57, Old: 600.00, New: 500.00
End Method Modifications

LED3_4,
LED3_4
Collection Time: 27.06.2023 11:37:42
Operator Name  : 370nm
Scan Software Version: 1.1(132)
Parameter List :
Instrument                      Cary Eclipse
Instrument Serial Number        EL08083863
Data mode                       Bio/Chemi-luminescence
Gate time (ms)                 5.0000
Scan mode                       Emission
X Mode                          Wavelength (nm)
Start (nm)                      200.00
Stop (nm)                       500.00
Em. Slit (nm)                   1.5
Data interval (nm)              1.0000
Emission filter                 Open
PMT voltage (V)                 Medium
Corrected spectra               OFF
Method Log     :
Method Name    : C:\Varian\Cary Eclipse WinFLR\Default.FMSW
Date/Time stamp: 27.08.2020 16:04:40
Method Modifications:
Instrument mode: Changed: 27.06.2023 11:36:57, Old:Fluorescence, New:Bio/Chemi-luminescence
Em. Slit Width (nm): Changed: 27.06.2023 11:36:57, Old:5, New:1.5
Scan Control Changed: 27.06.2023 11:36:57, Old:Medium, New:Manual
Ave. time (s): Changed: 27.06.2023 11:36:57, Old:0.10000, New:0.00500
Emission Wavelength Changed: 27.06.2023 11:36:57, Old: 400.00, New: 200.00
Stop Wavelength Changed: 27.06.2023 11:36:57, Old: 600.00, New: 500.00
End Method Modifications

LED3_5,
LED3_5
Collection Time: 27.06.2023 11:37:51
Operator Name  : 370nm
Scan Software Version: 1.1(132)
Parameter List :
Instrument                      Cary Eclipse
Instrument Serial Number        EL08083863
Data mode                       Bio/Chemi-luminescence
Gate time (ms)                 5.0000
Scan mode                       Emission
X Mode                          Wavelength (nm)
Start (nm)                      200.00
Stop (nm)                       500.00
Em. Slit (nm)                   1.5
Data interval (nm)              1.0000
Emission filter                 Open
PMT voltage (V)                 Medium
Corrected spectra               OFF
Method Log     :
Method Name    : C:\Varian\Cary Eclipse WinFLR\Default.FMSW
Date/Time stamp: 27.08.2020 16:04:40
Method Modifications:
Instrument mode: Changed: 27.06.2023 11:36:57, Old:Fluorescence, New:Bio/Chemi-luminescence
Em. Slit Width (nm): Changed: 27.06.2023 11:36:57, Old:5, New:1.5
Scan Control Changed: 27.06.2023 11:36:57, Old:Medium, New:Manual
Ave. time (s): Changed: 27.06.2023 11:36:57, Old:0.10000, New:0.00500
Emission Wavelength Changed: 27.06.2023 11:36:57, Old: 400.00, New: 200.00
Stop Wavelength Changed: 27.06.2023 11:36:57, Old: 600.00, New: 500.00
End Method Modifications

LED3_6,
LED3_6
Collection Time: 27.06.2023 11:38:00
Operator Name  : 370nm
Scan Software Version: 1.1(132)
Parameter List :
Instrument                      Cary Eclipse
Instrument Serial Number        EL08083863
Data mode                       Bio/Chemi-luminescence
Gate time (ms)                 5.0000
Scan mode                       Emission
X Mode                          Wavelength (nm)
Start (nm)                      200.00
Stop (nm)                       500.00
Em. Slit (nm)                   1.5
Data interval (nm)              1.0000
Emission filter                 Open
PMT voltage (V)                 Medium
Corrected spectra               OFF
Method Log     :
Method Name    : C:\Varian\Cary Eclipse WinFLR\Default.FMSW
Date/Time stamp: 27.08.2020 16:04:40
Method Modifications:
Instrument mode: Changed: 27.06.2023 11:36:57, Old:Fluorescence, New:Bio/Chemi-luminescence
Em. Slit Width (nm): Changed: 27.06.2023 11:36:57, Old:5, New:1.5
Scan Control Changed: 27.06.2023 11:36:57, Old:Medium, New:Manual
Ave. time (s): Changed: 27.06.2023 11:36:57, Old:0.10000, New:0.00500
Emission Wavelength Changed: 27.06.2023 11:36:57, Old: 400.00, New: 200.00
Stop Wavelength Changed: 27.06.2023 11:36:57, Old: 600.00, New: 500.00
End Method Modifications

LED3_7,
LED3_7
Collection Time: 27.06.2023 11:38:08
Operator Name  : 370nm
Scan Software Version: 1.1(132)
Parameter List :
Instrument                      Cary Eclipse
Instrument Serial Number        EL08083863
Data mode                       Bio/Chemi-luminescence
Gate time (ms)                 5.0000
Scan mode                       Emission
X Mode                          Wavelength (nm)
Start (nm)                      200.00
Stop (nm)                       500.00
Em. Slit (nm)                   1.5
Data interval (nm)              1.0000
Emission filter                 Open
PMT voltage (V)                 Medium
Corrected spectra               OFF
Method Log     :
Method Name    : C:\Varian\Cary Eclipse WinFLR\Default.FMSW
Date/Time stamp: 27.08.2020 16:04:40
Method Modifications:
Instrument mode: Changed: 27.06.2023 11:36:57, Old:Fluorescence, New:Bio/Chemi-luminescence
Em. Slit Width (nm): Changed: 27.06.2023 11:36:57, Old:5, New:1.5
Scan Control Changed: 27.06.2023 11:36:57, Old:Medium, New:Manual
Ave. time (s): Changed: 27.06.2023 11:36:57, Old:0.10000, New:0.00500
Emission Wavelength Changed: 27.06.2023 11:36:57, Old: 400.00, New: 200.00
Stop Wavelength Changed: 27.06.2023 11:36:57, Old: 600.00, New: 500.00
End Method Modifications

LED3_8,
LED3_8
Collection Time: 27.06.2023 11:38:16
Operator Name  : 370nm
Scan Software Version: 1.1(132)
Parameter List :
Instrument                      Cary Eclipse
Instrument Serial Number        EL08083863
Data mode                       Bio/Chemi-luminescence
Gate time (ms)                 5.0000
Scan mode                       Emission
X Mode                          Wavelength (nm)
Start (nm)                      200.00
Stop (nm)                       500.00
Em. Slit (nm)                   1.5
Data interval (nm)              1.0000
Emission filter                 Open
PMT voltage (V)                 Medium
Corrected spectra               OFF
Method Log     :
Method Name    : C:\Varian\Cary Eclipse WinFLR\Default.FMSW
Date/Time stamp: 27.08.2020 16:04:40
Method Modifications:
Instrument mode: Changed: 27.06.2023 11:36:57, Old:Fluorescence, New:Bio/Chemi-luminescence
Em. Slit Width (nm): Changed: 27.06.2023 11:36:57, Old:5, New:1.5
Scan Control Changed: 27.06.2023 11:36:57, Old:Medium, New:Manual
Ave. time (s): Changed: 27.06.2023 11:36:57, Old:0.10000, New:0.00500
Emission Wavelength Changed: 27.06.2023 11:36:57, Old: 400.00, New: 200.00
Stop Wavelength Changed: 27.06.2023 11:36:57, Old: 600.00, New: 500.00
End Method Modifications

LED3_9,
LED3_9
Collection Time: 27.06.2023 11:38:26
Operator Name  : 370nm
Scan Software Version: 1.1(132)
Parameter List :
Instrument                      Cary Eclipse
Instrument Serial Number        EL08083863
Data mode                       Bio/Chemi-luminescence
Gate time (ms)                 5.0000
Scan mode                       Emission
X Mode                          Wavelength (nm)
Start (nm)                      200.00
Stop (nm)                       500.00
Em. Slit (nm)                   1.5
Data interval (nm)              1.0000
Emission filter                 Open
PMT voltage (V)                 Medium
Corrected spectra               OFF
Method Log     :
Method Name    : C:\Varian\Cary Eclipse WinFLR\Default.FMSW
Date/Time stamp: 27.08.2020 16:04:40
Method Modifications:
Instrument mode: Changed: 27.06.2023 11:36:57, Old:Fluorescence, New:Bio/Chemi-luminescence
Em. Slit Width (nm): Changed: 27.06.2023 11:36:57, Old:5, New:1.5
Scan Control Changed: 27.06.2023 11:36:57, Old:Medium, New:Manual
Ave. time (s): Changed: 27.06.2023 11:36:57, Old:0.10000, New:0.00500
Emission Wavelength Changed: 27.06.2023 11:36:57, Old: 400.00, New: 200.00
Stop Wavelength Changed: 27.06.2023 11:36:57, Old: 600.00, New: 500.00
End Method Modifications

LED3_10,
LED3_10
Collection Time: 27.06.2023 11:38:34
Operator Name  : 370nm
Scan Software Version: 1.1(132)
Parameter List :
Instrument                      Cary Eclipse
Instrument Serial Number        EL08083863
Data mode                       Bio/Chemi-luminescence
Gate time (ms)                 5.0000
Scan mode                       Emission
X Mode                          Wavelength (nm)
Start (nm)                      200.00
Stop (nm)                       500.00
Em. Slit (nm)                   1.5
Data interval (nm)              1.0000
Emission filter                 Open
PMT voltage (V)                 Medium
Corrected spectra               OFF
Method Log     :
Method Name    : C:\Varian\Cary Eclipse WinFLR\Default.FMSW
Date/Time stamp: 27.08.2020 16:04:40
Method Modifications:
Instrument mode: Changed: 27.06.2023 11:36:57, Old:Fluorescence, New:Bio/Chemi-luminescence
Em. Slit Width (nm): Changed: 27.06.2023 11:36:57, Old:5, New:1.5
Scan Control Changed: 27.06.2023 11:36:57, Old:Medium, New:Manual
Ave. time (s): Changed: 27.06.2023 11:36:57, Old:0.10000, New:0.00500
Emission Wavelength Changed: 27.06.2023 11:36:57, Old: 400.00, New: 200.00
Stop Wavelength Changed: 27.06.2023 11:36:57, Old: 600.00, New: 500.00
End Method Modifications

LED3_11,
LED3_11
Collection Time: 27.06.2023 11:38:42
Operator Name  : 370nm
Scan Software Version: 1.1(132)
Parameter List :
Instrument                      Cary Eclipse
Instrument Serial Number        EL08083863
Data mode                       Bio/Chemi-luminescence
Gate time (ms)                 5.0000
Scan mode                       Emission
X Mode                          Wavelength (nm)
Start (nm)                      200.00
Stop (nm)                       500.00
Em. Slit (nm)                   1.5
Data interval (nm)              1.0000
Emission filter                 Open
PMT voltage (V)                 Medium
Corrected spectra               OFF
Method Log     :
Method Name    : C:\Varian\Cary Eclipse WinFLR\Default.FMSW
Date/Time stamp: 27.08.2020 16:04:40
Method Modifications:
Instrument mode: Changed: 27.06.2023 11:36:57, Old:Fluorescence, New:Bio/Chemi-luminescence
Em. Slit Width (nm): Changed: 27.06.2023 11:36:57, Old:5, New:1.5
Scan Control Changed: 27.06.2023 11:36:57, Old:Medium, New:Manual
Ave. time (s): Changed: 27.06.2023 11:36:57, Old:0.10000, New:0.00500
Emission Wavelength Changed: 27.06.2023 11:36:57, Old: 400.00, New: 200.00
Stop Wavelength Changed: 27.06.2023 11:36:57, Old: 600.00, New: 500.00
End Method Modifications

